  -3.4916232e-02
  -3.4531075e-02
  -3.4130376e-02
  -3.3715700e-02
  -3.3288545e-02
  -3.2850342e-02
  -3.2402453e-02
  -3.1946173e-02
  -3.1482729e-02
  -3.1013282e-02
  -3.0538923e-02
  -3.0060677e-02
  -2.9579501e-02
  -2.9096284e-02
  -2.8611847e-02
  -2.8126944e-02
  -2.7642262e-02
  -2.7158420e-02
  -2.6675967e-02
  -2.6195388e-02
  -2.5717099e-02
  -2.5241447e-02
  -2.4768713e-02
  -2.4299110e-02
  -2.3832782e-02
  -2.3369808e-02
  -2.2910197e-02
  -2.2453892e-02
  -2.2000766e-02
  -2.1550628e-02
  -2.1103216e-02
  -2.0658203e-02
  -2.0215191e-02
  -1.9773718e-02
  -1.9333253e-02
  -1.8893195e-02
  -1.8452880e-02
  -1.8011573e-02
  -1.7568472e-02
  -1.7122708e-02
  -1.6674486e-02
  -1.6225608e-02
  -1.5776352e-02
  -1.5326939e-02
  -1.4877575e-02
  -1.4428444e-02
  -1.3979717e-02
  -1.3531543e-02
  -1.3084054e-02
  -1.2637366e-02
  -1.2191574e-02
  -1.1746758e-02
  -1.1302979e-02
  -1.0860278e-02
  -1.0418682e-02
  -9.9781962e-03
  -9.5388107e-03
  -9.1004962e-03
  -8.6632059e-03
  -8.2268750e-03
  -7.7914207e-03
  -7.3567424e-03
  -6.9227214e-03
  -6.4892212e-03
  -6.0560874e-03
  -5.6231474e-03
  -5.1902109e-03
  -4.7570697e-03
  -4.3234975e-03
  -3.8892501e-03
  -3.4540654e-03
  -3.0176634e-03
  -2.5797461e-03
  -2.1399976e-03
  -1.6980840e-03
  -1.2536536e-03
  -8.0633657e-04
  -3.5574530e-04
   9.8525825e-05
   5.5690033e-04
   1.0198197e-03
   1.4877433e-03
   1.9611486e-03
   2.4405307e-03
   2.9212717e-03
   3.3915797e-03
   3.8563742e-03
   4.3216982e-03
   4.7936906e-03
   5.2785861e-03
   5.7827156e-03
   6.3125056e-03
   6.8744785e-03
   7.4752528e-03
   8.1215428e-03
   8.8201587e-03
   9.5780065e-03
   1.0402088e-02
   1.1299502e-02
   1.2277442e-02
   1.3343197e-02
   1.4504153e-02
   1.5767791e-02
   1.7141690e-02
   1.8633522e-02
   2.0251057e-02
   2.2002159e-02
   2.3894790e-02
   2.5937007e-02
   2.8136963e-02
   3.0502906e-02
   3.3043180e-02
   3.5766228e-02
   3.8680584e-02
   4.1794881e-02
   4.5117848e-02
   4.8658309e-02
   5.2425184e-02
   5.6427489e-02
   6.0674335e-02
   6.5174931e-02
   6.9938580e-02
   7.4974681e-02
   8.0292731e-02
   8.5902320e-02
   9.1813136e-02
   9.8034963e-02
   1.0457768e-01
   1.1147408e-01
   1.1881119e-01
   1.2654135e-01
   1.3460267e-01
   1.4293522e-01
   1.5148102e-01
   1.6018402e-01
   1.6899012e-01
   1.7784719e-01
   1.8670501e-01
   1.9551532e-01
   2.0423183e-01
   2.1281016e-01
   2.2120790e-01
   2.2938457e-01
   2.3730166e-01
   2.4492257e-01
   2.5221269e-01
   2.5913933e-01
   2.6567174e-01
   2.7178113e-01
   2.7744066e-01
   2.8262543e-01
   2.8731248e-01
   2.9148080e-01
   2.9511134e-01
   2.9818697e-01
   3.0069254e-01
   3.0261481e-01
   3.0394252e-01
   3.0466632e-01
   3.0477885e-01
   3.0427465e-01
   3.0315025e-01
   3.0140410e-01
   2.9903659e-01
   2.9605009e-01
   2.9244887e-01
   2.8823919e-01
   2.8342923e-01
   2.7802913e-01
   2.7206296e-01
   2.6559675e-01
   2.5869376e-01
   2.5141434e-01
   2.4381628e-01
   2.3595487e-01
   2.2788289e-01
   2.1965059e-01
   2.1130571e-01
   2.0289346e-01
   1.9445655e-01
   1.8603515e-01
   1.7766695e-01
   1.6938708e-01
   1.6122817e-01
   1.5322035e-01
   1.4539120e-01
   1.3776581e-01
   1.3036674e-01
   1.2321403e-01
   1.1632520e-01
   1.0971528e-01
   1.0339673e-01
   9.7379552e-02
   9.1671187e-02
   8.6276577e-02
   8.1198144e-02
   7.6435791e-02
   7.1986903e-02
   6.7846350e-02
   6.4006482e-02
   6.0457133e-02
   5.7185619e-02
   5.4176737e-02
   5.1413246e-02
   4.8885732e-02
   4.6586943e-02
   4.4503178e-02
   4.2614689e-02
   4.0895682e-02
   3.9314319e-02
   3.7832721e-02
   3.6406958e-02
   3.4987061e-02
   3.3517014e-02
   3.1943143e-02
   3.0180007e-02
   2.8093971e-02
   2.5555538e-02
   2.2440637e-02
   1.8630610e-02
   1.4012225e-02
   8.4776654e-03
   1.9245356e-03
  -5.7441402e-03
  -1.4620466e-02
  -2.4751410e-02
  -3.5998665e-02
  -4.8131076e-02
  -6.0852281e-02
  -7.3800706e-02
  -8.6549566e-02
  -9.8606867e-02
  -1.0941540e-01
  -1.1835276e-01
  -1.2473132e-01
  -1.2779823e-01
  -1.2673547e-01
  -1.2066426e-01
  -1.0915445e-01
  -9.1491701e-02
  -6.6754102e-02
  -3.4258066e-02
   6.4416968e-03
   5.5552171e-02
   1.1304204e-01
   1.7864167e-01
   2.5184314e-01
   3.3190022e-01
   4.1782837e-01
   5.0840474e-01
   6.0237603e-01
   6.9898944e-01
   7.9440545e-01
   8.8466142e-01
   9.6632397e-01
   1.0364890e+00
   1.0927815e+00
   1.1333560e+00
   1.1568961e+00
   1.1626147e+00
   1.1502539e+00
   1.1200851e+00
   1.0729091e+00
   1.0100556e+00
   9.3338401e-01
   8.4550033e-01
   7.4987682e-01
   6.4981350e-01
   5.4826066e-01
   4.4781897e-01
   3.5073939e-01
   2.5892322e-01
   1.7392208e-01
   9.6937915e-02
   2.8822994e-02
  -2.9920086e-02
  -7.9138406e-02
  -1.1886450e-01
  -1.4927528e-01
  -1.7080523e-01
  -1.8401380e-01
  -1.8958537e-01
  -1.8832926e-01
  -1.8117969e-01
  -1.6917871e-01
  -1.5333716e-01
  -1.3474279e-01
  -1.1440670e-01
  -9.3226715e-02
  -7.1987399e-02
  -5.1360042e-02
  -3.1902670e-02
  -1.4133695e-02
   1.6831379e-03
   1.5606321e-02
   2.7714222e-02
   3.8101160e-02
   4.6877407e-02
   5.4169182e-02
   6.0118655e-02
   6.4883948e-02
   6.8639131e-02
   7.1574227e-02
   7.3895208e-02
   7.5823996e-02
   7.7542175e-02
   7.9070925e-02
   8.0460104e-02
   8.1757073e-02
   8.3003627e-02
   8.4235996e-02
   8.5484847e-02
   8.6775279e-02
   8.8126829e-02
   8.9553467e-02
   9.1063599e-02
   9.2660065e-02
   9.4340143e-02
   9.6102556e-02
   9.7961520e-02
   9.9922978e-02
   1.0199220e-01
   1.0417439e-01
   1.0647466e-01
   1.0889804e-01
   1.1144949e-01
   1.1413389e-01
   1.1695603e-01
   1.1992065e-01
   1.2303237e-01
   1.2629575e-01
   1.2971529e-01
   1.3329537e-01
   1.3704033e-01
   1.4095404e-01
   1.4503702e-01
   1.4929305e-01
   1.5372646e-01
   1.5834083e-01
   1.6313908e-01
   1.6812339e-01
   1.7329528e-01
   1.7865553e-01
   1.8420423e-01
   1.8994076e-01
   1.9586381e-01
   2.0197135e-01
   2.0826066e-01
   2.1472831e-01
   2.2137018e-01
   2.2818141e-01
   2.3515648e-01
   2.4228914e-01
   2.4957245e-01
   2.5699876e-01
   2.6455971e-01
   2.7224625e-01
   2.8004862e-01
   2.8795636e-01
   2.9595830e-01
   3.0405031e-01
   3.1223152e-01
   3.2048140e-01
   3.2877911e-01
   3.3710415e-01
   3.4543628e-01
   3.5375559e-01
   3.6204245e-01
   3.7027755e-01
   3.7844185e-01
   3.8651663e-01
   3.9448347e-01
   4.0232424e-01
   4.1002112e-01
   4.1755659e-01
   4.2491341e-01
   4.3207466e-01
   4.3902371e-01
   4.4574423e-01
   4.5222020e-01
   4.5843589e-01
   4.6437587e-01
   4.7002501e-01
   4.7536848e-01
   4.8039174e-01
   4.8508058e-01
   4.8942105e-01
   4.9339953e-01
   4.9700269e-01
   5.0021748e-01
   5.0303118e-01
   5.0543136e-01
   5.0740588e-01
   5.0894290e-01
   5.1003017e-01
   5.1065106e-01
   5.1080701e-01
   5.1050458e-01
   5.0975073e-01
   5.0855292e-01
   5.0691906e-01
   5.0485752e-01
   5.0237710e-01
   4.9948709e-01
   4.9619722e-01
   4.9251770e-01
   4.8845917e-01
   4.8403274e-01
   4.7924998e-01
   4.7412292e-01
   4.6866404e-01
   4.6288627e-01
   4.5680302e-01
   4.5042815e-01
   4.4377597e-01
   4.3686125e-01
   4.2969921e-01
   4.2230556e-01
   4.1469643e-01
   4.0688843e-01
   3.9889861e-01
   3.9074450e-01
   3.8244407e-01
   3.7401576e-01
   3.6547846e-01
   3.5685151e-01
   3.4815473e-01
   3.3940838e-01
   3.3063318e-01
   3.2185032e-01
   3.1308143e-01
   3.0434861e-01
   2.9567441e-01
   2.8708185e-01
   2.7859439e-01
   2.7023050e-01
   2.6198338e-01
   2.5386043e-01
   2.4587122e-01
   2.3802477e-01
   2.3032950e-01
   2.2279326e-01
   2.1542329e-01
   2.0822630e-01
   2.0120838e-01
   1.9437504e-01
   1.8773124e-01
   1.8128132e-01
   1.7502907e-01
   1.6897768e-01
   1.6312978e-01
   1.5748739e-01
   1.5205197e-01
   1.4682439e-01
   1.4180496e-01
   1.3699337e-01
   1.3238877e-01
   1.2798971e-01
   1.2379415e-01
   1.1979948e-01
   1.1600252e-01
   1.1239950e-01
   1.0898605e-01
   1.0575725e-01
   1.0270758e-01
   9.9830945e-02
   9.7120675e-02
   9.4569510e-02
   9.2169614e-02
   8.9912568e-02
   8.7790665e-02
   8.5806750e-02
   8.3957095e-02
   8.2235725e-02
   8.0636815e-02
   7.9154685e-02
   7.7783806e-02
   7.6518797e-02
   7.5354423e-02
   7.4285600e-02
   7.3307392e-02
   7.2415008e-02
   7.1603810e-02
   7.0869305e-02
   7.0207149e-02
   6.9613146e-02
   6.9083250e-02
   6.8613561e-02
   6.8200329e-02
   6.7839950e-02
   6.7528972e-02
   6.7264087e-02
   6.7042138e-02
   6.6860116e-02
   6.6715160e-02
   6.6604556e-02
   6.6525740e-02
   6.6476295e-02
   6.6453954e-02
   6.6456596e-02
   6.6482249e-02
   6.6529092e-02
   6.6595447e-02
   6.6679789e-02
   6.6780739e-02
   6.6899481e-02
   6.7039540e-02
   6.7199124e-02
   6.7376344e-02
   6.7569395e-02
   6.7776548e-02
   6.7996160e-02
   6.8226666e-02
   6.8466582e-02
   6.8714507e-02
   6.8969119e-02
   6.9229177e-02
   6.9493522e-02
   6.9761076e-02
   7.0030840e-02
   7.0301897e-02
   7.0573413e-02
   7.0844632e-02
   7.1114881e-02
   7.1383566e-02
   7.1650175e-02
   7.1914277e-02
   7.2175522e-02
   7.2433641e-02
   7.2688445e-02
   7.2939828e-02
   7.3187763e-02
   7.3432303e-02
   7.3673586e-02
   7.3911827e-02
   7.4147323e-02
   7.4380453e-02
   7.4611676e-02
   7.4841532e-02
   7.5070643e-02
   7.5299710e-02
   7.5529517e-02
   7.5760921e-02
   7.5993642e-02
   7.6226825e-02
   7.6460149e-02
   7.6693315e-02
   7.6926048e-02
   7.7158094e-02
   7.7389222e-02
   7.7619225e-02
   7.7847916e-02
   7.8075132e-02
   7.8300732e-02
   7.8524597e-02
   7.8746631e-02
   7.8966760e-02
   7.9184934e-02
   7.9401123e-02
   7.9615321e-02
   7.9827544e-02
   8.0037831e-02
   8.0246242e-02
   8.0452862e-02
   8.0657796e-02
   8.0861172e-02
   8.1063141e-02
   8.1263877e-02
   8.1463575e-02
   8.1662453e-02
   8.1860751e-02
   8.2058734e-02
   8.2256686e-02
   8.2454915e-02
   8.2653751e-02
   8.2853548e-02
   8.3054681e-02
   8.3257547e-02
   8.3462566e-02
   8.3670182e-02
   8.3880858e-02
   8.4095084e-02
   8.4313368e-02
   8.4536242e-02
   8.4764263e-02
   8.4998007e-02
   8.5238074e-02
   8.5485085e-02
   8.5739687e-02
   8.6003049e-02
   8.6279654e-02
   8.6571704e-02
   8.6881226e-02
   8.7210763e-02
   8.7563369e-02
   8.7942612e-02
   8.8352573e-02
   8.8797846e-02
   8.9283539e-02
   8.9815272e-02
   9.0399179e-02
   9.1041907e-02
   9.1750615e-02
   9.2532979e-02
   9.3397183e-02
   9.4351927e-02
   9.5406374e-02
   9.6567973e-02
   9.7848184e-02
   9.9260554e-02
   1.0081839e-01
   1.0253473e-01
   1.0442239e-01
   1.0649391e-01
   1.0876161e-01
   1.1123754e-01
   1.1393351e-01
   1.1686108e-01
   1.2003155e-01
   1.2345599e-01
   1.2714521e-01
   1.3110978e-01
   1.3536001e-01
   1.3990597e-01
   1.4475321e-01
   1.4990114e-01
   1.5535305e-01
   1.6110929e-01
   1.6716710e-01
   1.7352062e-01
   1.8016088e-01
   1.8707580e-01
   1.9425018e-01
   2.0166574e-01
   2.0930105e-01
   2.1713161e-01
   2.2512980e-01
   2.3326487e-01
   2.4150300e-01
   2.4980723e-01
   2.5813750e-01
   2.6645065e-01
   2.7470040e-01
   2.8283754e-01
   2.9084006e-01
   2.9866589e-01
   3.0624937e-01
   3.1352925e-01
   3.2044869e-01
   3.2695526e-01
   3.3300096e-01
   3.3854216e-01
   3.4353967e-01
   3.4795871e-01
   3.5176890e-01
   3.5494428e-01
   3.5746329e-01
   3.5930878e-01
   3.6046803e-01
   3.6093271e-01
   3.6069890e-01
   3.5976711e-01
   3.5814225e-01
   3.5583363e-01
   3.5285498e-01
   3.4922445e-01
   3.4496458e-01
   3.4010234e-01
   3.3465136e-01
   3.2861169e-01
   3.2204759e-01
   3.1502440e-01
   3.0760488e-01
   2.9984913e-01
   2.9181464e-01
   2.8355628e-01
   2.7512630e-01
   2.6657431e-01
   2.5794730e-01
   2.4928965e-01
   2.4064311e-01
   2.3204680e-01
   2.2353721e-01
   2.1514822e-01
   2.0691109e-01
   1.9885444e-01
   1.9100426e-01
   1.8338395e-01
   1.7601426e-01
   1.6891331e-01
   1.6209662e-01
   1.5557706e-01
   1.4936490e-01
   1.4346778e-01
   1.3789069e-01
   1.3263604e-01
   1.2770358e-01
   1.2309046e-01
   1.1879118e-01
   1.1479765e-01
   1.1109854e-01
   1.0768049e-01
   1.0453519e-01
   1.0165122e-01
   9.9012990e-02
   9.6600772e-02
   9.4390682e-02
   9.2354687e-02
   9.0460599e-02
   8.8672081e-02
   8.6948644e-02
   8.5247994e-02
   8.3518465e-02
   8.1657781e-02
   7.9554469e-02
   7.7093991e-02
   7.4158752e-02
   7.0628096e-02
   6.6378305e-02
   6.1282601e-02
   5.5211148e-02
   4.8031046e-02
   3.9613593e-02
   2.9937291e-02
   1.9073485e-02
   7.1731725e-03
  -5.5253504e-03
  -1.8696492e-02
  -3.1927363e-02
  -4.4717781e-02
  -5.6480263e-02
  -6.6540032e-02
  -7.4135016e-02
  -7.8415843e-02
  -7.8535892e-02
  -7.3959108e-02
  -6.3661129e-02
  -4.6706719e-02
  -2.2354677e-02
   9.9421621e-03
   5.0536929e-02
   9.9588719e-02
   1.5706259e-01
   2.2272957e-01
   2.9616666e-01
   3.7675679e-01
   4.6375023e-01
   5.5667050e-01
   6.5243854e-01
   7.4748552e-01
   8.3855412e-01
   9.2269852e-01
   9.9728445e-01
   1.0599891e+00
   1.1088013e+00
   1.1420213e+00
   1.1582609e+00
   1.1564434e+00
   1.1358036e+00
   1.0964078e+00
   1.0404631e+00
   9.7059332e-01
   8.8938375e-01
   7.9938095e-01
   7.0309297e-01
   6.0298933e-01
   5.0150099e-01
   4.0102036e-01
   3.0390132e-01
   2.1243067e-01
   1.2805797e-01
   5.1520462e-02
  -1.6586364e-02
  -7.5843841e-02
  -1.2601010e-01
  -1.6702007e-01
  -1.9898548e-01
  -2.2219486e-01
  -2.3711355e-01
  -2.4438369e-01
  -2.4482422e-01
  -2.3942419e-01
  -2.2894414e-01
  -2.1435334e-01
  -1.9675974e-01
  -1.7715828e-01
  -1.5643092e-01
  -1.3534659e-01
  -1.1456126e-01
  -9.4617866e-02
  -7.5946356e-02
  -5.8863678e-02
  -4.3573777e-02
  -3.0167599e-02
  -1.8623088e-02
  -8.8662712e-03
  -7.7584336e-04
   5.8767545e-03
   1.1304551e-02
   1.5703360e-02
   1.9251776e-02
   2.2111180e-02
   2.4425735e-02
   2.6322389e-02
   2.7910872e-02
   2.9283700e-02
   3.0516170e-02
   3.1666365e-02
   3.2775149e-02
   3.3866941e-02
   3.4973827e-02
   3.6115637e-02
   3.7302309e-02
   3.8543172e-02
   3.9846947e-02
   4.1221748e-02
   4.2675081e-02
   4.4213844e-02
   4.5844325e-02
   4.7572207e-02
   4.9402563e-02
   5.1339859e-02
   5.3387953e-02
   5.5550095e-02
   5.7828258e-02
   6.0223774e-02
   6.2743248e-02
   6.5393385e-02
   6.8180453e-02
   7.1110282e-02
   7.4188265e-02
   7.7419358e-02
   8.0808081e-02
   8.4358515e-02
   8.8074304e-02
   9.1958657e-02
   9.6014343e-02
   1.0024370e-01
   1.0464861e-01
   1.0923055e-01
   1.1399053e-01
   1.1892913e-01
   1.2404652e-01
   1.2934238e-01
   1.3481601e-01
   1.4046622e-01
   1.4629143e-01
   1.5228959e-01
   1.5845823e-01
   1.6479444e-01
   1.7129486e-01
   1.7795570e-01
   1.8477275e-01
   1.9174135e-01
   1.9885638e-01
   2.0611469e-01
   2.1351704e-01
   2.2105101e-01
   2.2870281e-01
   2.3645848e-01
   2.4430400e-01
   2.5222519e-01
   2.6020777e-01
   2.6823735e-01
   2.7629941e-01
   2.8437933e-01
   2.9246235e-01
   3.0053361e-01
   3.0857814e-01
   3.1658083e-01
   3.2452648e-01
   3.3239975e-01
   3.4018520e-01
   3.4786726e-01
   3.5543026e-01
   3.6285840e-01
   3.7013577e-01
   3.7724633e-01
   3.8417396e-01
   3.9090237e-01
   3.9741520e-01
   4.0369594e-01
   4.0972799e-01
   4.1549462e-01
   4.2097899e-01
   4.2616412e-01
   4.3103296e-01
   4.3556829e-01
   4.3975281e-01
   4.4356910e-01
   4.4700049e-01
   4.5004291e-01
   4.5269120e-01
   4.5493862e-01
   4.5677943e-01
   4.5820879e-01
   4.5922280e-01
   4.5981850e-01
   4.5999389e-01
   4.5974788e-01
   4.5908032e-01
   4.5799201e-01
   4.5648469e-01
   4.5456102e-01
   4.5222461e-01
   4.4948001e-01
   4.4633269e-01
   4.4278908e-01
   4.3885654e-01
   4.3454335e-01
   4.2985877e-01
   4.2481295e-01
   4.1941700e-01
   4.1368298e-01
   4.0762386e-01
   4.0125356e-01
   3.9458695e-01
   3.8763982e-01
   3.8042890e-01
   3.7297188e-01
   3.6528735e-01
   3.5739486e-01
   3.4931490e-01
   3.4106889e-01
   3.3267919e-01
   3.2416911e-01
   3.1556286e-01
   3.0686892e-01
   2.9809332e-01
   2.8925577e-01
   2.8037524e-01
   2.7147001e-01
   2.6255764e-01
   2.5365496e-01
   2.4477813e-01
   2.3594254e-01
   2.2716292e-01
   2.1845327e-01
   2.0982685e-01
   2.0129624e-01
   1.9287331e-01
   1.8456919e-01
   1.7639432e-01
   1.6835842e-01
   1.6047050e-01
   1.5273885e-01
   1.4517105e-01
   1.3777397e-01
   1.3055378e-01
   1.2351591e-01
   1.1666511e-01
   1.1000538e-01
   1.0354003e-01
   9.7271669e-02
   9.1202166e-02
   8.5332694e-02
   7.9663711e-02
   7.4194959e-02
   6.8925472e-02
   6.3853568e-02
   5.8979516e-02
   5.4314451e-02
   4.9854872e-02
   4.5594825e-02
   4.1528437e-02
   3.7649921e-02
   3.3953573e-02
   3.0433773e-02
   2.7084983e-02
   2.3901752e-02
   2.0878710e-02
   1.8010572e-02
   1.5292136e-02
   1.2718286e-02
   1.0283986e-02
   7.9842871e-03
   5.8143228e-03
   3.7693103e-03
   1.8445510e-03
   3.5429667e-05
  -1.6625849e-03
  -3.2539402e-03
  -4.7430000e-03
  -6.1340443e-03
  -7.4312692e-03
  -8.6387872e-03
  -9.7606270e-03
  -1.0800733e-02
  -1.1762967e-02
  -1.2651107e-02
  -1.3468844e-02
  -1.4219791e-02
  -1.4907471e-02
  -1.5535329e-02
  -1.6106721e-02
  -1.6624924e-02
  -1.7093128e-02
  -1.7514439e-02
  -1.7891882e-02
  -1.8228396e-02
  -1.8526837e-02
  -1.8789977e-02
  -1.9020505e-02
  -1.9221024e-02
  -1.9394057e-02
  -1.9542038e-02
  -1.9667323e-02
  -1.9772180e-02
  -1.9858796e-02
  -1.9929271e-02
  -1.9985625e-02
  -2.0029791e-02
  -2.0061592e-02
  -2.0076434e-02
  -2.0075226e-02
  -2.0059253e-02
  -2.0029751e-02
  -1.9987913e-02
  -1.9934886e-02
  -1.9871771e-02
  -1.9799621e-02
  -1.9719446e-02
  -1.9632210e-02
  -1.9538829e-02
