  -1.3517023e-01
  -7.3445688e-02
   5.8492954e-02
  -2.3157874e-02
  -1.4726306e-01
  -7.8782543e-02
   2.9916274e-01
   9.1761824e-02
  -5.9877547e-02
   2.4793140e-02
  -1.1511537e-01
  -1.6670423e-02
   3.5832867e-02
   2.3333440e-02
  -1.7127798e-01
  -4.6608252e-02
  -1.1708929e-02
  -1.8959987e-03
   9.7994744e-02
  -1.5873414e-01
  -9.1479361e-03
   8.7152367e-02
  -1.8180155e-01
  -1.7687771e-02
  -5.4452004e-02
  -2.2322262e-02
  -1.5169813e-01
  -4.8604087e-02
  -1.2470533e-01
   2.2089208e-02
  -1.4958655e-01
   2.1204912e-01
  -4.4134520e-02
   4.8568394e-02
   9.3204837e-03
  -1.2752105e-01
  -1.9208598e-01
  -2.6328870e-01
   1.6863484e-02
   4.5207768e-03
  -9.7926808e-02
  -2.4011851e-01
   7.8050210e-02
  -1.3800875e-01
   1.2514794e-02
  -1.1265535e-02
  -9.0008245e-03
  -6.3720918e-02
  -1.1250541e-01
  -7.6930851e-02
   9.4884472e-02
   1.2531463e-01
  -3.4865604e-02
   7.1915021e-02
   6.9615929e-03
   1.8027497e-01
   1.0100651e-01
  -1.8935950e-02
  -7.6486168e-02
   9.3132538e-02
  -6.3914073e-02
  -8.9418195e-03
   9.9777103e-04
  -2.3914098e-03
  -1.6957815e-01
  -6.6884641e-02
  -4.0695009e-02
  -8.3636648e-02
  -2.1838141e-01
   1.1554042e-01
  -6.2205783e-02
  -1.4611199e-01
   7.2790177e-02
  -2.5368071e-03
   1.3224685e-01
   7.0419315e-02
  -2.3290540e-01
   2.5122226e-03
  -5.2612265e-02
   7.5203589e-02
   7.8041267e-02
  -6.1143745e-02
  -4.7371430e-02
   1.2088797e-01
   7.6547272e-02
  -5.2257928e-02
   5.9638340e-02
  -1.4866326e-01
   1.6972486e-02
  -5.6630069e-02
  -8.1630515e-02
   5.7860212e-02
   6.0924899e-02
  -5.8427361e-03
  -3.0054761e-02
   5.3998649e-02
  -4.0686529e-02
  -2.9594489e-02
  -8.3827504e-02
   8.7376842e-02
  -3.8129090e-02
  -2.1312686e-01
  -1.0850486e-01
  -1.4596337e-01
  -2.8912977e-02
   1.7333343e-01
   1.1456503e-01
  -7.8212162e-02
   1.1667815e-01
   1.8896343e-02
   1.5994585e-03
  -9.7339001e-03
   5.5456420e-02
   4.2621338e-02
   2.1980273e-01
  -4.9807179e-02
  -1.2115961e-01
   2.8198731e-02
  -9.8136041e-02
   7.1119167e-02
   1.0940456e-01
  -5.8603950e-02
   2.0635069e-01
   1.0071032e-01
   1.3578437e-01
  -1.5014671e-01
   7.3404234e-04
   1.9838733e-01
   1.9226236e-02
   1.3011086e-01
   2.0483035e-01
   4.2252320e-04
   1.7946885e-01
   2.0912052e-02
   1.4777130e-01
   1.5065780e-01
   2.1214692e-01
   2.5149991e-01
   3.1379545e-01
   1.4821369e-01
   1.0301726e-01
   1.5796101e-01
   2.8855691e-01
   3.7057212e-01
   1.3363523e-01
   1.2175025e-01
   4.1613009e-01
   2.1629874e-01
   4.0250225e-01
   4.8424516e-01
   3.0221365e-01
   2.7982585e-01
   2.4422206e-01
   3.5174469e-01
   2.8059874e-01
   2.9050223e-01
   3.3603098e-01
   2.3316296e-01
   2.2286191e-01
   1.7611156e-01
   3.2729980e-01
   2.6283542e-01
   2.6435139e-01
   3.2347300e-01
   2.4979352e-01
   3.6594893e-01
   2.7334668e-01
   3.0250849e-01
   4.6051671e-01
   3.8498882e-01
   1.7111168e-01
   2.4285063e-01
   2.3512948e-01
   1.8494602e-01
   1.5247371e-01
   3.3870832e-01
   3.0778140e-01
   1.8767545e-01
   3.5596498e-01
   1.3192976e-01
   2.6577948e-01
   8.3045163e-02
   4.1045456e-01
   3.1360171e-01
   5.5099871e-02
   1.6121523e-01
   2.9140028e-01
   8.6112734e-02
   6.3210757e-02
   1.5824159e-02
   1.5289250e-01
   2.2669422e-01
   1.5391809e-02
  -7.4476511e-02
   4.5224421e-02
   1.2758589e-01
   8.6545203e-02
  -9.0000892e-02
   2.2213342e-01
  -7.4854997e-02
   8.2506658e-02
   2.4414415e-01
   1.6280823e-01
   2.3245083e-01
  -1.4022005e-01
   2.5912450e-01
  -1.9180956e-02
   6.7356207e-02
  -7.0974312e-02
   4.0711852e-02
   2.6941536e-02
  -2.0168386e-02
  -4.9387221e-04
  -2.2426544e-02
   2.5358955e-02
   1.5426853e-01
  -1.6883890e-01
  -6.8399944e-02
   8.2098362e-02
  -1.4679613e-01
   3.6879386e-02
  -5.6430392e-02
  -6.0721531e-02
   1.8125788e-01
   5.3087108e-02
  -6.3487117e-03
  -1.0570409e-01
  -4.4622306e-02
  -9.9392345e-02
   1.3574560e-02
  -5.8907370e-02
  -1.5599063e-02
  -1.1237515e-01
  -2.8806532e-01
  -3.4096422e-02
  -3.0379126e-01
  -1.9446891e-01
  -1.0339676e-01
  -5.6799252e-03
   6.2878042e-03
  -1.9339813e-01
   8.9557945e-02
   7.5047390e-02
   7.6939870e-02
   5.2794671e-02
   1.9030006e-01
   1.0503287e-01
   3.5921999e-01
   4.4250265e-01
   5.2460599e-01
   7.1788424e-01
   7.0614660e-01
   7.0156051e-01
   9.0039547e-01
   8.6290366e-01
   9.3891062e-01
   1.2421934e+00
   1.2003724e+00
   1.0170005e+00
   1.1814856e+00
   1.1590608e+00
   1.1228556e+00
   8.8604560e-01
   1.0878071e+00
   1.1235551e+00
   9.0938221e-01
   7.6153750e-01
   4.4364822e-01
   6.0613723e-01
   5.5423198e-01
   2.3068138e-01
   1.9485844e-01
   1.6146990e-01
  -7.4270598e-03
   5.5621443e-02
  -4.6744168e-02
   2.5274926e-02
  -1.7922307e-01
  -2.2547336e-01
  -1.7201118e-01
  -1.7774152e-01
  -2.0682462e-01
  -2.2521260e-01
  -1.7011203e-01
  -1.2209364e-01
  -2.4979639e-01
  -2.0518965e-01
  -2.3435154e-01
   1.8710545e-02
  -1.3279236e-01
  -2.2415268e-01
   3.8727201e-02
   1.6555745e-01
  -1.5441834e-02
  -4.2384765e-03
   1.1124094e-01
  -8.4545994e-02
   7.3143621e-02
   5.3246161e-02
   1.0338164e-01
   1.6510968e-01
   1.2976018e-01
   1.0703180e-01
  -6.1858107e-03
   8.0997320e-03
  -1.1522332e-02
  -6.7969446e-03
   1.3499637e-01
   4.4123106e-02
  -3.8172831e-02
   5.9699991e-02
  -4.7571131e-03
  -7.3098667e-03
  -6.9663639e-03
  -5.3839004e-02
   1.1338143e-01
   2.1009654e-01
   1.4703761e-03
   2.0619231e-01
   1.3426685e-01
   1.9389994e-01
   2.4302180e-01
   1.7170281e-01
   1.8406121e-01
  -4.7036237e-02
  -2.7727660e-02
   8.6710692e-02
   6.4064465e-02
   1.0525375e-01
   4.5154957e-02
   1.0295927e-01
   8.4477736e-02
   6.4902549e-02
   1.7386781e-01
  -2.3347845e-02
   5.9638131e-02
  -1.8480578e-01
   2.4552265e-01
   2.8220083e-01
   3.1856020e-01
   1.9875405e-01
   6.2856861e-02
   1.0361314e-01
   1.8212789e-01
   2.7923298e-01
   2.2071814e-01
   7.7477165e-02
   2.1062167e-01
   2.0132596e-01
   2.5897259e-01
   9.1747396e-02
   1.5225312e-01
   2.9130527e-01
   4.5675042e-01
   3.1537142e-01
   2.9159966e-01
   3.5983140e-01
   2.2296086e-01
   1.4714390e-01
   2.8515866e-01
   2.5050762e-01
   3.3689353e-01
   4.7544749e-01
   3.5871426e-01
   4.6195971e-01
   4.2110060e-01
   3.8087930e-01
   3.4939756e-01
   4.7630607e-01
   4.2857258e-01
   3.5096559e-01
   5.4750818e-01
   5.6423968e-01
   3.0382234e-01
   5.6503982e-01
   4.9112226e-01
   3.3836001e-01
   1.6974290e-01
   4.8426652e-01
   4.0270041e-01
   6.0141751e-01
   4.7836361e-01
   2.7793203e-01
   3.5269087e-01
   5.1661467e-01
   4.9183088e-01
   4.5614031e-01
   4.4862577e-01
   3.9970712e-01
   5.7096527e-01
   4.3918324e-01
   3.1319253e-01
   3.7219525e-01
   6.1736884e-01
   4.4392605e-01
   4.7430734e-01
   5.2314646e-01
   5.6806548e-01
   6.7953903e-01
   5.0627452e-01
   5.9505516e-01
   3.9699458e-01
   4.5075118e-01
   4.3577197e-01
   4.7054797e-01
   3.9979143e-01
   4.8787710e-01
   4.4042413e-01
   4.3026306e-01
   5.1202825e-01
   4.5985098e-01
   4.4009088e-01
   4.1338531e-01
   6.4814033e-01
   4.6882121e-01
   3.3225344e-01
   4.0166211e-01
   3.5750436e-01
   4.7140306e-01
   4.0987572e-01
   2.7741129e-01
   4.2140339e-01
   4.4735313e-01
   1.7550061e-01
   5.3388675e-01
   3.7491525e-01
   2.9578205e-01
   5.3457644e-01
   3.5442144e-01
   1.9347929e-01
   1.0847944e-01
   4.0769634e-01
   2.5477415e-01
   3.7394490e-01
   1.8882917e-01
   2.0356932e-01
   2.3424076e-01
   3.6213645e-01
   1.8418452e-01
   2.6556183e-01
   3.3206258e-01
   3.5776135e-01
   3.5366768e-01
   3.2766048e-01
   1.8945110e-01
   2.1586442e-01
   2.2128119e-01
   1.7825156e-01
   4.6066854e-01
   2.3591830e-01
   3.4368941e-02
   2.5194910e-01
  -2.6653672e-02
   5.1189502e-02
   4.5459710e-02
   3.6039763e-02
   1.0121425e-01
   2.5379431e-01
  -2.5109735e-02
   1.2806590e-01
   1.0442327e-01
   1.3690249e-01
  -3.5422376e-02
   3.3823553e-02
  -1.1091121e-01
   9.2736680e-02
   2.5967983e-01
   1.9588536e-01
   1.2009023e-01
   6.8971541e-02
   9.0369846e-02
  -9.1634432e-02
   1.1901933e-01
   7.1549974e-02
   8.0015990e-02
   8.6609865e-02
   1.1179818e-01
   6.6947284e-02
   1.3807229e-01
   5.1049522e-02
  -6.4360702e-02
   1.7935914e-01
   6.4876144e-02
   6.0862626e-02
  -1.1445879e-01
   5.7203486e-02
  -7.3394812e-02
  -5.2557554e-02
   2.3920538e-01
  -4.2819746e-02
  -6.2458729e-04
   1.4140678e-01
   9.4336820e-03
   1.2074212e-01
   1.1041138e-01
   1.4285975e-01
  -7.8553250e-02
   1.5272388e-01
  -1.1403681e-01
   1.6333483e-01
  -3.7659080e-02
   3.3348046e-02
  -5.9144875e-02
  -1.2597580e-01
   1.3301601e-01
   1.0605279e-01
   3.2000702e-01
   4.1610960e-02
   8.7055733e-02
   6.5848865e-02
  -3.4123380e-02
   5.0605288e-02
   1.4393584e-01
   1.2134570e-01
  -1.9467424e-02
   1.8232981e-01
   1.5251344e-01
   1.8892712e-01
   1.5313490e-01
  -2.0984089e-03
   1.6215635e-01
  -6.0267828e-02
  -1.9915685e-02
   6.2027120e-02
   1.9786495e-02
  -1.5665319e-02
   1.0467781e-01
   2.2328234e-01
   1.8454498e-02
  -6.0041113e-02
   1.8241075e-03
   8.6907437e-02
   1.8403647e-02
   2.3189557e-01
  -4.6432758e-02
   7.0662965e-02
   1.3771073e-02
   7.9784779e-02
   4.5090011e-02
   6.5638853e-02
   8.0904027e-02
   5.0480096e-02
   9.3825221e-02
   1.8884415e-01
   1.7240358e-01
   5.0982660e-02
   4.2109201e-02
   1.9298747e-01
   3.2730968e-01
   6.4587405e-03
  -1.2340965e-01
   1.0642724e-01
   1.6436844e-01
   1.1525149e-01
   1.5926845e-01
   1.7111913e-01
   1.5165286e-01
   1.0961971e-01
  -9.8977320e-02
   2.1187817e-01
   6.3219355e-02
   6.9924076e-02
   1.2477788e-01
   3.0128072e-02
   1.8713727e-01
   9.8203762e-02
   4.7077841e-02
   5.7795212e-02
   6.1103603e-03
   5.7468260e-02
  -5.8001629e-02
  -6.6395739e-02
   3.0025515e-02
  -8.6162896e-03
  -1.0644102e-02
   8.2761608e-02
   1.4446076e-01
  -3.2255545e-02
   4.6425744e-02
   6.0831191e-02
  -2.2155726e-02
   2.9869020e-02
   3.1176431e-02
   9.5455515e-02
   6.1703918e-02
   6.9536230e-02
   3.3123040e-02
   1.0415259e-01
   5.8333599e-02
   6.7814351e-02
   6.4478169e-03
   9.2838955e-02
   6.3378955e-02
   1.0350256e-01
   8.8452112e-02
   1.5872162e-01
   4.8153403e-02
  -5.6356742e-02
   1.8900325e-01
   4.6302508e-02
   2.1520672e-01
   2.8216555e-01
   1.6277543e-01
   1.2468913e-01
   2.4468495e-01
   9.3927662e-02
   7.9833816e-02
   1.8469443e-01
   1.1760844e-01
  -3.2744364e-02
   2.2999706e-01
   4.3718875e-02
   4.1946217e-02
   2.0987543e-01
   2.6239825e-01
   1.7201666e-01
   2.2849598e-01
   2.9842769e-01
   6.7156263e-02
   1.1088228e-01
   6.3240161e-02
   3.0855588e-01
  -5.9077569e-02
  -4.4932435e-02
   2.9856344e-01
   1.6110674e-01
   1.0755689e-01
   8.3816242e-02
   6.8254163e-02
   4.0891032e-01
   2.7556782e-01
   1.2199589e-01
   1.0882079e-01
   9.8016226e-02
   2.1068236e-01
   4.3275310e-01
   2.3159455e-01
   2.7978988e-01
   3.0004073e-01
   1.6283981e-01
   1.5643505e-01
   2.6660275e-01
   2.6105725e-01
   2.4614909e-01
   3.7998511e-01
   2.3138602e-01
   4.4153068e-01
   1.4837314e-01
   4.8818322e-01
   2.1479322e-01
   2.4245007e-01
   3.2693230e-01
   4.2961562e-01
   2.7139026e-01
   4.0914929e-01
   3.2011803e-01
   2.0159100e-01
   4.0771447e-01
   3.2183915e-01
   2.9127687e-01
   5.3124394e-01
   3.9564270e-01
   4.4408990e-01
   2.8504745e-01
   2.2596545e-01
   4.2723431e-01
   3.6947502e-01
   1.6255091e-01
   3.6593229e-01
   2.6142447e-01
   2.7838568e-01
   5.0145135e-01
   4.2680771e-01
   2.1928919e-01
   2.7955327e-01
   2.4976136e-01
   2.8709515e-01
   2.7972802e-01
   2.9090678e-01
   2.4807167e-01
   2.5953090e-01
   1.5587659e-01
   1.2162481e-01
   3.5146647e-01
   2.4317654e-01
   1.2312709e-01
   8.5071987e-02
   2.3129599e-01
   2.7375823e-01
   2.2541056e-01
   1.4017053e-01
   1.6762641e-01
   2.6489720e-01
   4.4732559e-01
   1.9973742e-01
   8.7258059e-02
   2.9097034e-01
  -4.1842804e-02
   3.3999502e-01
   1.1601741e-01
   1.9009774e-01
   1.6836937e-01
   4.9188015e-02
   1.5823276e-01
   6.4495087e-02
   5.2467201e-02
   1.8933542e-01
   2.6443055e-01
   2.2314847e-01
   5.7296059e-02
   2.2717696e-02
   3.2421883e-02
   7.0171791e-02
   2.1506664e-01
   7.9041959e-02
  -1.9690549e-03
  -3.2761365e-02
   1.5624784e-01
   1.2332391e-01
   1.2612066e-01
   6.8321416e-02
   8.2570463e-02
  -1.8218699e-01
  -9.7919394e-03
  -1.4886593e-01
  -2.7786045e-02
   5.7144542e-02
  -5.6106270e-02
   8.1482310e-02
  -8.4373064e-02
  -1.1793674e-01
  -1.6990359e-01
  -2.1916597e-01
   5.3666046e-02
   6.0556097e-02
  -2.9956658e-02
  -8.5463023e-02
  -1.6312287e-01
  -9.7723050e-02
   3.1142454e-02
  -5.4343516e-02
   2.1517549e-01
   9.1429815e-02
   3.1930632e-01
   2.5702669e-01
   6.1169265e-01
   3.8911066e-01
   5.7397995e-01
   5.2837439e-01
   8.0722630e-01
   6.9469335e-01
   9.4757263e-01
   1.0203848e+00
   1.2195313e+00
   1.1770588e+00
   1.0787633e+00
   1.0025516e+00
   1.2555557e+00
   1.0836718e+00
   9.9554105e-01
   9.3949377e-01
   8.0913596e-01
   8.7696669e-01
   7.9756617e-01
   6.8934627e-01
   7.4637154e-01
   5.9002013e-01
   4.1712650e-01
   1.7691518e-01
   2.0115677e-01
   4.3122217e-02
   4.7033974e-02
  -1.1220794e-01
  -2.4982323e-01
  -8.1335958e-02
  -1.0574905e-01
  -1.7784083e-01
  -2.8111771e-01
  -2.8309003e-01
  -1.8874099e-01
  -1.8480753e-01
  -3.5736709e-01
  -1.6892631e-01
  -1.0854580e-01
  -2.2861634e-01
  -1.8261499e-01
  -3.1634439e-01
  -1.1484039e-01
   6.3218606e-02
  -1.1448068e-02
   8.2083479e-02
  -1.0926517e-02
  -6.8665872e-02
   6.1570591e-02
   5.0352426e-02
  -8.7947247e-02
  -1.3206756e-01
   8.5579337e-03
  -5.8078777e-02
  -3.3565890e-02
   1.5202381e-01
  -1.2586626e-01
   1.0497793e-01
  -6.5620012e-02
   1.0136207e-01
  -4.0763594e-02
   1.1110839e-01
   9.0439233e-02
   1.0751851e-01
  -3.3954705e-02
   3.6708986e-02
   2.0725485e-02
  -5.3565815e-02
   3.0447331e-02
   3.0563141e-01
   6.5567265e-02
   1.2708794e-01
   6.0354002e-02
  -3.0095210e-02
   1.4444945e-01
  -8.7944810e-02
   1.3218611e-01
   3.8113441e-02
   1.4808123e-01
   2.2770071e-01
   1.3096159e-01
   1.5478372e-01
   6.2798963e-02
  -1.6320744e-02
   3.6602125e-02
  -6.7619073e-02
   2.0063923e-01
   1.0867627e-01
   1.2522152e-01
   2.2514143e-01
   5.0056300e-02
   5.0510027e-02
   1.3444705e-01
   9.7394163e-02
   1.3652432e-01
  -1.7249983e-04
   1.3174648e-01
   9.6330000e-02
   4.5385585e-02
   3.7083214e-02
   2.6202699e-01
   6.9370330e-02
   9.9937099e-02
   2.6056894e-01
   1.1317272e-01
   1.7543002e-01
   1.6936489e-01
   9.6049604e-02
   4.0406636e-02
   7.3020842e-02
   2.7786003e-01
   1.5059225e-01
   2.3285374e-01
   3.9735124e-01
   1.6917311e-01
   2.6789996e-01
   3.2232657e-01
   9.9626776e-02
   2.5454820e-01
   3.5534059e-01
   3.0249374e-01
   3.5727070e-01
   3.5532130e-01
   3.2087803e-01
   2.1873127e-01
   2.9689963e-01
   2.7678797e-01
   2.7765192e-01
   5.3237457e-01
   3.6908457e-01
   3.1301913e-01
   4.1282027e-01
   4.2897007e-01
   3.4374288e-01
   3.7676468e-01
   3.2650699e-01
   5.1466838e-01
   5.5514272e-01
   4.5751094e-01
   5.5622700e-01
   4.8253697e-01
   4.6815659e-01
   5.2875680e-01
   4.5508061e-01
   4.0116612e-01
   4.4460348e-01
   4.2785437e-01
   4.8252084e-01
   4.4449236e-01
   4.1229227e-01
   5.0364465e-01
   5.2842106e-01
   2.8512263e-01
   4.2316480e-01
   5.1260038e-01
   2.9271538e-01
   6.5757932e-01
   4.8727075e-01
   5.2488483e-01
   4.6263910e-01
   5.7313591e-01
   3.1137506e-01
   5.4673024e-01
   5.7508105e-01
   2.8607309e-01
   3.7594339e-01
   7.5201883e-01
   4.5829025e-01
   3.9302663e-01
   4.1137049e-01
   3.8782977e-01
   3.2255806e-01
   3.9039904e-01
   2.7999012e-01
   2.5734983e-01
   3.0203277e-01
   4.7421837e-01
   3.3504658e-01
   4.7033756e-01
   3.7588369e-01
   2.4004721e-01
   4.0625643e-01
   1.7219693e-01
   3.7553255e-01
   2.7309112e-01
   2.9752141e-01
   3.4143389e-01
   4.6934800e-01
   3.5213024e-01
   3.2210961e-01
   1.7110381e-01
   2.9414084e-01
   1.3967074e-01
   2.1302441e-01
   4.3465588e-01
   8.0754076e-02
   1.5850531e-01
   1.7917609e-01
   2.3741218e-01
   7.8792689e-02
   7.2048164e-02
   6.2909920e-02
  -4.9925597e-02
   1.3716199e-01
   2.3651906e-01
   9.8837628e-02
   7.1620663e-03
   2.1707060e-01
   1.6627265e-01
   1.2674426e-01
  -4.0234317e-02
   3.9126674e-02
   1.7821328e-01
   1.5856845e-01
   1.5837026e-01
   1.0262255e-01
   1.1465479e-01
   8.4784559e-02
   9.3963401e-02
   7.3979760e-02
  -1.4759308e-01
   6.7839250e-02
   4.2240197e-03
  -9.4763576e-02
   3.3470656e-02
   4.2733083e-03
   2.3792753e-01
   5.9900048e-02
  -9.2004026e-02
  -1.4155889e-01
  -1.9283734e-01
  -2.5429585e-03
  -4.0530274e-02
   3.5194633e-02
  -2.1499577e-01
  -7.0737208e-02
   1.5716615e-03
  -5.7436542e-02
   3.8571901e-02
  -4.4483457e-02
  -1.3141962e-02
  -1.1844245e-01
  -1.3697496e-01
  -1.3410100e-01
   6.8066909e-02
   6.6129074e-02
  -1.3221149e-01
  -1.5550888e-01
   7.6233464e-02
   9.6170867e-02
  -6.2317844e-02
   4.2352260e-02
  -1.1103104e-01
   1.0067035e-01
   1.4607789e-01
  -7.3701075e-02
   3.9665983e-02
   1.0783341e-02
   8.8852347e-02
  -3.2060784e-02
  -1.3223435e-01
  -1.5155453e-01
  -1.0457116e-02
  -1.0808602e-01
   2.4899249e-02
  -2.8047447e-01
  -1.7361339e-01
  -6.9729546e-02
  -4.5246091e-02
  -8.2895085e-02
   3.5205726e-02
   7.8298301e-02
   1.2012800e-01
   1.0551362e-01
  -1.0866924e-02
   1.4907701e-01
   1.5655826e-01
  -3.2194226e-02
  -2.5138622e-02
