   1.8682668e+00
   1.8984291e+00
   1.0203302e+00
   5.4082143e-01
  -1.9404678e-01
  -4.7509808e-01
  -6.6686896e-01
  -2.5001933e-01
  -1.7031966e-01
   5.6890729e-01
   7.6006152e-01
   2.9387555e-01
   3.8164245e-01
  -6.6670447e-01
  -9.1228140e-01
  -1.2163376e+00
  -1.5931787e+00
  -5.1188889e-01
   3.2310921e-01
   1.1568786e+00
   6.9371865e-01
   4.2263639e-01
   9.8173611e-02
  -6.0642187e-01
  -7.6595435e-01
  -1.0783804e+00
  -9.8170314e-01
  -2.9367535e-01
   7.7932563e-02
   8.1822872e-01
   7.2457557e-01
   3.8050778e-01
   5.7500367e-02
  -2.8992185e-03
  -5.3548400e-01
  -8.8425159e-01
  -6.5409526e-01
  -4.0874554e-01
   4.6054117e-01
   7.9467613e-01
   1.0837527e+00
   5.3600097e-01
   4.6121501e-01
  -3.0927638e-01
  -5.1151823e-01
  -9.5302043e-01
  -5.9685765e-01
  -1.0835278e-01
   1.5296155e-01
   1.1833639e+00
   1.3031455e+00
   6.4234825e-01
   1.8652398e-01
  -1.6505629e-01
  -9.1471353e-01
  -1.0412695e+00
  -4.7291335e-01
  -9.5298649e-02
   7.0101358e-01
   1.0144537e+00
   1.3537527e+00
   1.4767109e+00
   4.9733887e-01
   4.7918248e-02
  -4.4934692e-01
  -7.7312471e-01
  -3.8179690e-01
  -8.7953840e-02
   4.9973412e-01
   9.7618885e-01
   1.6178936e+00
   9.1090924e-01
   3.9472497e-01
   3.2114630e-01
  -1.6332636e-01
  -6.7430738e-01
  -2.6668960e-01
   1.3009719e-01
   5.5634091e-01
   1.1348566e+00
   1.2088912e+00
   1.0075286e+00
   7.9212656e-01
  -9.7977239e-02
  -7.2251322e-01
  -8.5318950e-01
  -6.6919278e-01
  -7.6472394e-02
   4.7321682e-01
   7.3315158e-01
   1.2412036e+00
   1.1060485e+00
   3.5319923e-01
   1.2567382e-02
  -6.7167589e-01
  -1.3135083e+00
  -6.2673689e-01
  -1.0982597e-01
   3.9555124e-01
   5.7512917e-01
   1.3213640e+00
   8.1349917e-01
   5.3634406e-01
  -6.0595755e-01
  -8.8750801e-01
  -1.1680346e+00
  -9.8264406e-01
  -2.9923723e-01
   1.0347241e-01
   7.3629596e-01
   9.4992068e-01
   8.5824906e-01
   6.1873112e-02
  -3.3861744e-01
  -1.3110781e+00
  -1.1897284e+00
  -1.0386340e+00
  -9.8210215e-02
   3.6137691e-01
   8.7648548e-01
   1.2106345e+00
   5.4509160e-01
   5.9776368e-02
  -4.5539720e-01
  -8.3410960e-01
  -1.0473440e+00
  -8.2358672e-01
  -3.5495492e-01
   4.7917482e-01
   2.8232249e-01
   5.7914195e-01
   6.4202799e-01
   3.5973134e-01
  -1.8083982e-01
  -9.0761411e-01
  -8.4543701e-01
  -8.4678723e-01
  -3.5875400e-01
   2.1069783e-01
   5.5798579e-01
   6.0273320e-01
   7.6985088e-01
   5.0908653e-01
  -2.7183543e-01
  -8.9132075e-01
  -1.2545787e+00
  -8.8513902e-01
  -7.9381479e-01
   3.3282467e-01
   5.1758266e-01
   1.0908238e+00
   8.6709816e-01
   2.6620303e-01
   5.6838302e-02
  -9.6199684e-01
  -1.1876417e+00
  -8.5338081e-01
   1.1990788e-01
   4.0323604e-01
   7.1966994e-01
   1.1918237e+00
   5.9159588e-01
   2.7987083e-01
  -2.6407287e-02
  -8.4842465e-01
  -1.2268084e+00
  -5.6475613e-01
  -4.0376381e-01
   1.2113308e-01
   1.0018763e+00
   1.1309246e+00
   5.7173629e-01
   3.3639513e-01
  -5.7096446e-01
  -8.6284852e-01
  -1.0130870e+00
  -8.7909791e-01
  -7.9926185e-01
   8.0058719e-01
   7.6957156e-01
   9.4708366e-01
   1.0140566e+00
   5.5765284e-01
  -2.8737702e-01
  -7.0798123e-01
  -9.4974524e-01
  -8.5468871e-01
  -2.0043160e-01
   5.3063707e-01
   8.6688023e-01
   1.1617206e+00
   9.8244110e-01
   4.3047097e-01
   1.6448623e-01
  -6.8124238e-01
  -6.4207895e-01
  -6.0897150e-01
  -2.7908016e-01
   9.9621580e-02
   1.1812146e+00
   1.7500261e+00
   1.1828400e+00
   3.7166000e-01
  -3.0841831e-01
  -6.0827307e-01
  -4.9461330e-01
  -4.1486632e-01
   1.6178013e-01
   3.9957625e-01
   1.2873039e+00
   1.5903516e+00
   1.0773480e+00
   7.7721945e-01
   2.0449146e-02
  -6.5445712e-01
  -1.2132136e+00
  -7.5278548e-01
  -1.1569205e-01
   2.9746792e-01
   1.1391723e+00
   1.0214302e+00
   8.1420740e-01
   5.4564813e-01
  -3.0774947e-01
  -9.8428275e-01
  -9.8509205e-01
  -5.4045862e-01
   6.2119239e-03
   4.1092804e-01
   9.2481136e-01
   1.2045559e+00
   1.0849045e+00
  -3.6579282e-02
  -1.9089273e-01
  -7.7475890e-01
  -9.1150990e-01
  -1.2167809e+00
  -2.6181277e-01
   4.7300122e-02
   5.3713437e-01
   1.1993214e+00
   8.3117042e-01
   4.2798221e-01
  -2.1403768e-01
  -1.1230518e+00
  -6.0110506e-01
  -4.3058820e-01
   1.0285152e-01
   7.1470438e-01
   1.3871763e+00
   1.7931804e+00
   1.6640090e+00
   1.4118772e+00
   9.1827461e-01
   8.1183408e-02
   1.7730630e-02
  -2.9579856e-01
   1.1811257e-01
   7.6877055e-01
   1.0731226e+00
   1.2576518e+00
   7.2882869e-01
  -6.3642629e-02
  -5.5886557e-01
  -1.3802300e+00
  -1.2471785e+00
  -1.1229954e+00
  -9.7186818e-01
  -2.5081337e-01
   8.0945380e-01
   9.0785501e-01
   4.4473706e-01
   1.8153234e-01
  -4.1597459e-01
  -9.6530814e-01
  -1.2421657e+00
  -5.5496337e-01
  -3.7402262e-01
   2.2894935e-01
   9.9565536e-01
   7.4170428e-01
   6.8355333e-01
   5.4104566e-01
  -3.9217081e-01
  -6.7410033e-01
  -1.0899728e+00
  -6.6264188e-01
  -2.8913827e-01
   2.4840072e-01
   4.4434402e-01
   8.4091509e-01
   1.2339177e+00
   6.6267625e-01
  -5.3305665e-01
  -4.2580089e-01
  -9.5661310e-01
  -7.9712220e-01
  -3.8668802e-01
   5.0823426e-01
   9.7174978e-01
   9.6933839e-01
   1.0567241e+00
   4.1223995e-01
   1.9070061e-02
  -7.1434641e-01
  -4.2302002e-01
  -4.7433529e-01
  -1.3566412e-01
   4.0291420e-01
   6.7506296e-01
   1.6203402e+00
   9.5082319e-01
   5.7320241e-01
   1.6621013e-01
  -3.2135302e-01
  -3.8421987e-01
  -6.4304423e-01
  -1.4230437e-01
   1.0228137e+00
   1.0948899e+00
   1.5520540e+00
   1.2090659e+00
   9.4155026e-01
   1.9722319e-02
  -5.0502465e-01
  -5.3407920e-01
  -1.3716262e-01
   2.1491326e-01
   7.8827903e-01
   9.0402326e-01
   1.8635251e+00
   1.3369988e+00
   1.2354899e-01
   6.1965332e-02
  -2.2138384e-01
  -6.4082755e-01
  -3.4167021e-01
  -5.4910574e-02
   5.9827292e-01
   1.5045166e+00
   1.0137073e+00
   1.2189395e+00
   7.4916454e-01
  -4.5349243e-01
  -8.8751546e-01
  -8.6547431e-01
  -3.5064201e-01
   5.3124462e-02
   8.5309539e-01
   1.0759641e+00
   1.2272507e+00
   9.0549444e-01
   5.5042083e-01
  -1.0219593e-01
  -9.5726094e-01
  -1.2931421e+00
  -4.8224384e-01
  -4.6002582e-01
   3.2911608e-01
   6.6077335e-01
   1.0923843e+00
   5.1959819e-01
   3.9357801e-01
  -2.8824704e-01
  -8.2155020e-01
  -8.2073061e-01
  -6.0998364e-01
  -5.3663190e-01
  -2.5541576e-02
   8.9132784e-01
   1.1948859e+00
   1.1800771e+00
   4.8976624e-01
  -3.5570222e-01
  -8.0046698e-01
  -1.1343112e+00
  -7.4610639e-01
  -2.9689674e-01
  -1.1243133e-01
   8.6654431e-01
   1.0685944e+00
   4.9764926e-01
   2.5880689e-03
  -3.3977729e-01
  -1.0845797e+00
  -1.1823492e+00
  -4.6472536e-01
  -2.4372291e-01
  -6.5087541e-02
   9.3440351e-01
   5.6598405e-01
   9.1941787e-01
   5.6318477e-01
  -4.2167004e-01
  -7.6698711e-01
  -1.1238456e+00
  -7.6038227e-01
  -2.7161616e-02
   4.9481586e-01
   6.3928508e-01
   1.0186300e+00
   9.8739821e-01
   6.4725362e-01
  -4.2710420e-01
  -8.8818489e-01
  -1.1180156e+00
  -7.2518097e-01
  -1.4047620e-01
   3.5143958e-01
   6.9955263e-01
   8.8371683e-01
   6.9161947e-01
   2.3129614e-01
  -3.1060001e-01
  -6.5656611e-01
  -7.8714367e-01
  -6.5696265e-01
  -1.2595660e-01
   3.9050745e-01
   8.8389025e-01
   8.4072012e-01
   8.3667627e-01
   6.1946630e-01
  -3.1089748e-01
  -9.1003453e-01
  -7.3894365e-01
  -7.6841356e-01
  -6.4072484e-01
   5.3297498e-01
   7.3425842e-01
   9.3806729e-01
   6.2301601e-01
   3.3476802e-01
   1.2108112e-01
  -8.4997154e-01
  -1.0417628e+00
  -8.3099011e-01
  -1.4177854e-02
   7.2756465e-01
   6.2989625e-01
   1.0477411e+00
   1.1546378e+00
   3.7265514e-01
  -4.2568716e-01
  -8.2316313e-01
  -9.3520641e-01
  -4.8535057e-01
  -2.7652481e-01
   8.7363866e-01
   7.9847873e-01
   1.2398336e+00
   6.8239611e-01
   4.4394021e-01
  -3.2828097e-01
  -8.0777679e-01
  -8.5428312e-01
  -8.0959851e-01
  -1.7076842e-01
   3.9066756e-01
   1.1143814e+00
   1.3147183e+00
   1.0124032e+00
   8.6457336e-01
  -2.9664504e-01
  -3.7678029e-01
  -5.6670966e-01
  -2.0188323e-01
   4.4281491e-01
   2.4069693e-01
   1.2259048e+00
   9.8444134e-01
   8.0936049e-01
   6.4490094e-01
  -1.5734258e-01
  -7.5130816e-01
  -9.3263472e-01
  -5.4222074e-01
  -2.7482785e-01
   6.4844354e-01
   8.9594249e-01
   1.4226433e+00
   1.0743391e+00
   6.6585639e-01
  -8.4046247e-02
  -7.8632155e-01
  -6.8292869e-01
  -7.2372598e-01
  -2.6460195e-01
  -1.5368094e-01
   7.8000078e-01
   1.2513634e+00
   6.3515490e-01
   7.0744156e-01
  -2.1980934e-01
  -7.8552329e-01
  -1.0419455e+00
  -9.5862909e-01
  -7.3389152e-01
   3.9665639e-01
   1.0392426e+00
   8.4252847e-01
   4.1149320e-01
   2.2489602e-01
  -2.3067721e-01
  -9.8833849e-01
  -8.2420382e-01
  -8.9796411e-01
  -7.4258229e-01
   3.6630787e-01
   1.2866887e+00
   1.4152741e+00
   1.3702121e+00
   1.1776246e+00
   5.8811524e-01
   2.5778454e-01
   6.8749760e-02
   5.7959930e-01
   7.1432627e-01
   1.6429948e+00
   1.6828172e+00
   2.0084320e+00
   1.3174740e+00
   9.0094533e-01
  -2.0908525e-01
  -8.9433903e-01
  -1.1832169e+00
  -1.2368077e+00
  -3.4658706e-01
   2.0314604e-01
   7.5615413e-01
   4.7821842e-01
   5.9498741e-01
   2.7891638e-01
  -3.2981695e-01
  -1.1812327e+00
  -8.6694188e-01
  -7.4948927e-01
  -7.4902582e-01
   4.7673581e-01
   9.3220826e-01
   1.1973749e+00
   1.2973402e+00
   1.2598428e-01
  -2.8101716e-01
  -5.3520455e-01
  -8.7998229e-01
  -1.0095010e+00
  -4.1142709e-01
   2.0572517e-01
   7.6102832e-01
   8.2462491e-01
   9.0711844e-01
   4.7205791e-02
   3.2663944e-04
  -5.1683736e-01
  -1.3194891e+00
  -7.0921735e-01
  -1.1548155e-01
   5.5971666e-01
   1.1708950e+00
   1.2713529e+00
   7.8839043e-01
   1.5513022e-01
  -3.9184274e-02
  -2.7917724e-01
  -4.6225017e-01
  -4.9541811e-01
  -2.7950336e-01
   5.0010171e-01
   1.4497017e+00
   1.2225876e+00
   1.0354521e+00
   4.9819664e-01
   1.8843539e-01
  -2.7002793e-01
  -9.5763618e-01
  -4.0796600e-01
   1.4567119e-01
   8.1442921e-01
   1.2388556e+00
   1.4949934e+00
   1.2871531e+00
   9.5350313e-01
   1.7609145e-01
  -2.2356622e-01
  -3.9002087e-01
  -6.9593054e-01
  -1.9162612e-01
   7.5100718e-01
   1.2554510e+00
   1.1191272e+00
   1.4022257e+00
   5.8339905e-01
   1.0210810e-01
  -2.2684722e-01
  -4.0362893e-01
  -3.9712354e-01
   2.2122117e-01
   6.0388810e-01
   1.0166017e+00
   1.3082750e+00
   8.9121064e-01
   7.6867562e-01
  -1.0282208e-01
  -6.6284970e-01
  -5.2934806e-01
  -8.9050333e-01
  -2.8892972e-01
   4.8561150e-01
   6.3590042e-01
   1.0637304e+00
   1.0752457e+00
   7.0687193e-01
  -2.1960813e-01
  -9.9305104e-01
  -1.0027483e+00
  -6.8861699e-01
  -3.2990369e-01
   4.1822661e-01
   9.0664233e-01
   1.3369465e+00
   9.2909344e-01
   4.4845917e-01
  -3.9754959e-01
  -1.0070027e+00
  -1.1498234e+00
  -5.4516273e-01
  -4.2755030e-01
   3.9899512e-01
   5.4050709e-01
   1.1599526e+00
   7.5604176e-01
   3.8853080e-01
  -1.9029247e-01
  -1.0166087e+00
  -1.0687139e+00
  -6.8474194e-01
  -3.5253479e-01
   2.1481613e-01
   1.1263294e+00
   1.2338156e+00
   5.1662333e-01
   2.0296657e-01
  -5.9835084e-01
  -7.8569111e-01
  -7.3747077e-01
  -5.6697317e-01
  -3.6798253e-01
   4.2087401e-01
   1.0556255e+00
   1.1351085e+00
   5.1090953e-01
   5.6882486e-01
  -2.1171126e-01
  -1.2424297e+00
  -9.5630248e-01
  -9.3884511e-01
  -3.8128942e-01
   6.3032668e-01
   4.9484482e-01
   1.2317615e+00
   7.0709943e-01
   2.1346079e-01
  -6.3253119e-01
  -7.7255569e-01
  -1.1113398e+00
  -8.6227686e-01
  -1.2363248e-01
   4.2565009e-01
   7.3621810e-01
   1.1785424e+00
   1.0180544e+00
  -7.9619457e-03
  -3.0915924e-01
  -9.8875688e-01
  -1.0556727e+00
  -8.1795139e-01
  -2.5901642e-01
   4.5958926e-01
   8.5826285e-01
   1.3252845e+00
   6.5766572e-01
   5.8328207e-01
  -5.0503189e-01
  -8.4326917e-01
  -8.4370314e-01
  -7.3209774e-01
  -4.4766589e-01
   3.1657069e-01
   1.0894355e+00
   1.0513619e+00
   9.7181778e-01
   3.8780441e-01
  -9.7060017e-02
  -1.2047890e+00
  -1.0266461e+00
  -8.2528394e-01
  -4.8019719e-01
  -4.0194791e-02
   7.3485443e-01
   1.2547114e+00
   6.9753943e-01
   5.5856575e-01
  -3.8392090e-01
  -6.5670031e-01
  -1.1202246e+00
  -9.1757546e-01
  -6.5552744e-02
   4.3314626e-01
   1.0031137e+00
   1.0820282e+00
   9.9771500e-01
   2.0856197e-01
   1.0155041e-01
  -4.3659990e-01
  -1.0806968e+00
  -7.1231987e-01
   1.1016426e-03
   7.3111610e-01
   1.0075717e+00
   8.2932353e-01
   6.9644062e-01
   6.7058086e-01
  -4.4336355e-01
  -5.6253812e-01
  -2.0587038e-01
  -7.1962483e-01
   3.0087267e-02
   4.4073503e-01
   9.7113716e-01
   1.0200064e+00
   1.4744612e+00
   2.6711051e-01
  -3.1759309e-01
  -3.6273478e-01
  -4.7428953e-01
  -8.2109466e-01
  -4.3836499e-01
   8.2267193e-01
   9.6311891e-01
   9.3792992e-01
   1.1489261e+00
   1.3376595e-01
  -5.0168374e-01
  -6.4894144e-01
  -8.9189691e-01
  -7.2104403e-01
  -1.6660115e-01
   3.4303932e-01
   5.7708113e-01
   1.1349994e+00
   7.1578027e-01
   2.2887830e-01
  -2.2098720e-01
  -7.3777996e-01
  -1.1717125e+00
  -1.0765759e+00
   3.0972496e-02
   1.3172699e-01
   5.2706470e-01
   7.9935456e-01
   5.3119415e-01
  -7.2803854e-02
  -2.0219086e-01
  -6.8357120e-01
  -1.1817646e+00
  -3.8304323e-01
   2.0995472e-01
   9.9226131e-01
   1.3361870e+00
   2.0814907e+00
   1.9986177e+00
   1.2790949e+00
   7.6920880e-01
   1.1669021e-01
  -2.1777555e-01
  -1.6752300e-01
  -3.4375953e-02
   4.4496861e-01
   1.1727598e+00
   5.1784453e-01
   9.3176371e-01
   4.3051853e-02
  -3.9788618e-01
  -1.1737654e+00
  -8.7940701e-01
  -9.7972991e-01
  -6.1034752e-01
   1.2581175e-01
   1.2171485e+00
   8.5803591e-01
   6.0894964e-01
  -1.1923282e-03
  -1.5888102e-01
  -9.0453456e-01
  -9.4206949e-01
  -1.0213338e+00
  -3.2994724e-01
   2.5177385e-01
   1.1380340e+00
   7.9118936e-01
   8.8269402e-01
   5.8384794e-02
  -3.8167923e-01
  -7.4829006e-01
  -9.8617435e-01
  -9.9764408e-01
  -1.3134523e-01
   6.9278444e-01
   7.7757111e-01
   1.2071282e+00
   9.1754043e-01
   5.7538599e-01
  -3.3431030e-01
  -8.1021729e-01
  -1.2705779e+00
  -6.2743564e-01
  -5.5574281e-02
   7.0689683e-01
   1.0104982e+00
   1.1673655e+00
   9.6440969e-01
   6.0094440e-01
  -1.2778993e-01
  -7.9597246e-01
  -6.3059784e-01
  -6.9180364e-01
  -6.5573208e-02
   2.7326470e-01
   8.6344554e-01
   1.1418048e+00
   9.5404357e-01
   3.4782769e-01
   5.0033214e-01
  -5.5295338e-01
  -8.2242591e-01
  -3.3006699e-01
  -1.1082378e-01
   5.2382209e-01
   1.1340307e+00
   1.2736078e+00
   1.2044200e+00
   7.2016729e-01
   1.0869179e-01
  -5.3962597e-01
  -8.6276817e-01
  -2.7786026e-01
   1.8848443e-01
   5.7044270e-01
   1.2840973e+00
   1.5853679e+00
   8.0254880e-01
   4.5846378e-01
  -6.7596766e-02
  -6.6813132e-01
  -9.3813553e-01
  -5.3519460e-01
  -1.5000821e-01
   2.3022402e-01
   1.0030774e+00
   1.0683952e+00
   7.8590108e-01
   6.6292056e-01
  -1.3399508e-01
  -8.1531252e-01
  -7.7728197e-01
  -8.3022117e-01
  -3.8209514e-01
   2.5271726e-01
   7.5007515e-01
   9.9125326e-01
   1.0245957e+00
   4.6220201e-01
  -3.9600731e-01
  -1.0945206e+00
  -7.0970584e-01
  -9.9152053e-01
  -6.3641580e-01
   2.2355465e-01
   7.4608542e-01
   9.9867148e-01
   7.5700885e-01
   1.2299181e-01
  -3.7823482e-01
  -7.8981876e-01
  -8.0166966e-01
  -8.2331024e-01
  -1.7385931e-01
   8.8678238e-02
   7.9231361e-01
   7.5563246e-01
   7.9007358e-01
   1.4744313e-01
  -3.3442453e-01
  -1.0465413e+00
  -1.0135918e+00
  -5.2575027e-01
  -4.3439190e-01
   1.6073748e-01
   1.1727621e+00
   9.8848677e-01
   8.7676284e-01
   4.2375095e-02
  -5.5437136e-01
  -1.3728626e+00
  -1.2194836e+00
  -7.0503104e-01
  -6.2026933e-01
   3.5320158e-01
   1.1826771e+00
   9.4917347e-01
   4.0584402e-01
   2.9522389e-01
  -4.7535749e-01
  -8.7447715e-01
  -1.1889511e+00
  -1.0910903e+00
  -3.5293494e-01
  -4.0069763e-01
   6.1502572e-01
   7.2691061e-01
   6.2928285e-01
   2.6349570e-01
  -5.6750197e-01
  -9.7074593e-01
  -9.6827460e-01
  -7.5890710e-01
  -2.5786433e-01
   2.9164518e-01
   5.9795675e-01
   7.2240387e-01
   1.0263841e+00
  -1.0112882e-02
  -4.3187993e-01
  -1.0953560e+00
  -1.0423117e+00
  -1.1005034e+00
   7.9780178e-02
   3.2322815e-01
   5.5842112e-01
   1.3347129e+00
   5.0762429e-01
   8.6294028e-01
  -2.2960039e-01
  -4.3862839e-01
  -9.3840787e-01
  -8.7791753e-01
  -3.1734864e-01
   4.9643056e-01
   6.2297279e-01
   9.3724776e-01
   3.8329399e-01
   4.1855837e-01
  -2.0290883e-01
  -5.6812342e-01
  -1.2153634e+00
  -9.6872376e-01
  -3.0662936e-01
   5.1398066e-01
   9.3769978e-01
   1.0512101e+00
   6.2433957e-01
   5.3980265e-01
  -3.6674092e-02
  -5.9051224e-01
  -8.8898357e-01
  -4.6712568e-01
  -2.2351931e-01
   5.3839042e-01
   6.2023665e-01
   1.2977124e+00
   1.0827147e+00
   4.8619528e-01
  -2.0383363e-01
  -4.0665158e-01
  -8.9808207e-01
  -5.4209487e-01
  -6.4455815e-01
   4.1780583e-01
   7.6956547e-01
   1.4794002e+00
   9.2913231e-01
   3.0775222e-01
  -2.5668866e-01
  -8.3414229e-01
  -1.2616442e+00
  -8.7327639e-01
  -2.1671734e-01
   3.3623455e-01
   6.6168395e-01
   5.6122036e-01
   1.0200677e+00
  -7.0186666e-02
  -5.7515348e-01
  -8.8570519e-01
  -1.1724097e+00
  -9.9745916e-01
   6.7701583e-02
   4.6556979e-01
   9.4925829e-01
   9.6339577e-01
   6.1129251e-01
   2.2588403e-01
  -5.1008810e-01
  -1.0036457e+00
  -1.0678920e+00
  -8.9561900e-01
  -3.9143562e-01
  -3.1493208e-01
   6.3612742e-01
   9.4313644e-01
   1.1687360e+00
   2.9404174e-02
  -4.6750187e-01
  -8.4778222e-01
  -6.5494849e-01
  -4.5429666e-01
   4.9963090e-01
   1.0563429e+00
   1.7239155e+00
   2.1739601e+00
   1.5566040e+00
   1.3862436e+00
   8.7743816e-01
  -1.2862091e-01
  -4.2029089e-01
  -9.7748394e-01
  -3.8260346e-02
  -3.3654840e-01
   3.7601458e-01
   9.1259337e-01
   7.5501989e-01
  -4.6766670e-02
  -4.7751043e-01
  -1.4663483e+00
  -1.6259837e+00
  -1.2825931e+00
  -2.4904603e-01
  -1.0976110e-01
   5.0675440e-01
   4.5231518e-01
   6.4830667e-01
  -1.6011721e-01
   2.9991742e-01
  -7.1687795e-01
  -9.7067724e-01
  -9.1168040e-01
  -5.4031099e-01
  -1.9843233e-01
   3.8768408e-01
   3.8392362e-01
   6.4425618e-01
   1.6370043e-01
  -3.9514779e-01
  -1.0618291e+00
  -1.1883567e+00
  -9.9375846e-01
  -2.6624161e-01
  -8.9554000e-02
   5.9654693e-01
   9.2994355e-01
   6.2106654e-01
   3.2898607e-01
  -4.4073192e-01
  -7.7939899e-01
  -9.6963796e-01
  -7.3801078e-01
  -4.3371999e-01
   2.7886841e-01
   1.0014715e+00
   9.8908363e-01
   1.1196937e+00
   3.5166882e-01
  -2.7712616e-01
  -2.5779663e-01
  -1.0234414e+00
  -6.2027839e-01
  -4.2940896e-01
   5.6880928e-01
   9.8168461e-01
   1.1926818e+00
   1.2813785e+00
   6.8859469e-01
  -7.1004235e-02
  -4.1760997e-01
  -5.1705658e-01
  -5.9413190e-01
   2.9197219e-01
   4.8043127e-01
   1.4009398e+00
   1.5239824e+00
   8.7547233e-01
   4.2305449e-01
   2.4734954e-01
  -3.9528206e-01
  -7.6799951e-01
  -5.2176280e-01
  -3.7989978e-02
   6.8033721e-01
   1.1679491e+00
   1.1430521e+00
   1.2686955e+00
   8.1653740e-01
  -2.8600666e-01
  -1.8390615e-01
  -7.0329338e-01
  -9.9089521e-01
  -3.9622149e-01
   4.9101776e-01
   8.4329133e-01
   8.7861536e-01
   8.4977344e-01
   3.0841037e-01
  -2.1612449e-01
  -5.7947536e-01
  -8.1456033e-01
  -6.6999662e-01
   4.1487539e-02
   4.2940073e-01
   7.2327429e-01
   8.3839603e-01
   7.9928935e-01
   3.7315875e-01
  -2.3067137e-01
  -8.2489538e-01
  -9.7431392e-01
  -1.0995199e+00
  -6.4711458e-01
   1.0194411e-01
   7.1122417e-01
   9.0330462e-01
   8.0523696e-01
  -1.0730608e-01
  -5.1474827e-01
  -1.0814351e+00
  -8.5839124e-01
  -1.0794460e+00
  -5.1730500e-01
   1.5967160e-01
   7.8836289e-01
   6.7557105e-01
   1.0762570e+00
   3.5967607e-01
  -3.0019046e-01
  -4.1457096e-01
  -1.1996756e+00
  -8.3967337e-01
  -4.8102931e-01
   2.8462697e-01
   5.2925662e-01
   1.0684195e+00
   6.4522690e-01
   3.7011867e-02
  -5.5332562e-02
  -4.3180222e-01
  -9.4423072e-01
  -4.8508150e-01
  -7.0002213e-01
   1.3070905e-01
   7.0803472e-01
   4.0588937e-01
   6.8273319e-01
   4.6034856e-01
  -3.9508427e-01
  -9.8268673e-01
  -8.4955934e-01
  -4.9589570e-01
  -4.5147949e-01
  -4.1728779e-02
   5.9825723e-01
   7.9258802e-01
   7.0069837e-01
   2.5091536e-02
  -7.7717765e-01
  -8.5629955e-01
  -1.1686286e+00
  -6.8981145e-01
  -8.4296211e-01
   3.7751686e-01
   7.3712048e-01
   8.3302305e-01
   6.8028916e-01
  -6.8789147e-02
  -2.3486944e-01
  -8.9172864e-01
  -1.2034645e+00
  -8.4905893e-01
  -5.8479530e-01
   4.2027139e-01
   7.5456618e-01
   1.1744407e+00
   8.4268261e-01
   1.3240083e-01
  -5.3581623e-01
  -1.1943312e+00
  -9.6720873e-01
  -8.0675397e-01
  -3.4689451e-01
   2.4885399e-01
   8.7186184e-01
   8.5634565e-01
   6.8802452e-01
   2.5627556e-01
  -2.6686113e-01
  -8.1951612e-01
  -1.1931241e+00
  -1.0020042e+00
  -6.8057664e-01
   7.4534215e-02
   8.4294196e-01
   1.0030687e+00
   8.2444989e-01
   4.4434211e-01
   1.9221020e-02
  -8.8789956e-01
  -5.1786759e-01
  -5.7641368e-01
   1.4232663e-01
   5.6222967e-01
   5.6937851e-01
   1.5310814e+00
   1.1157343e+00
   8.3854893e-01
  -5.9418482e-02
  -5.7855523e-01
  -8.6186752e-01
  -5.3478324e-01
  -1.1485823e-01
   6.1057481e-01
   1.3244436e+00
   1.3322832e+00
   1.2483567e+00
   7.4949423e-01
  -1.5756594e-02
  -3.1544634e-01
  -8.7149002e-01
  -6.3866102e-01
  -3.0904371e-01
   4.0593556e-01
   1.5054199e+00
   1.1880468e+00
   1.1185189e+00
   3.2696078e-01
  -2.4843842e-01
  -6.4058293e-01
  -1.2929949e+00
  -7.5066016e-01
  -5.0006120e-01
   3.1171031e-01
   8.3259308e-01
   1.2094461e+00
   7.9046894e-01
   4.4321720e-01
  -2.8820120e-01
  -9.9007189e-01
  -1.2037427e+00
  -8.1053323e-01
  -4.2398226e-01
   8.5511685e-01
   7.8305658e-01
   1.1660247e+00
   3.6822400e-01
   3.3812579e-01
  -3.6205809e-01
  -9.4620134e-01
  -9.8518383e-01
  -9.4506808e-01
  -3.8019866e-01
   1.3842976e-02
   1.0002578e+00
   1.0029885e+00
   6.1450853e-01
   2.9219059e-01
   7.7113999e-03
  -3.4430992e-01
  -5.3571423e-01
  -1.0709138e-01
   5.8802257e-01
   1.3802968e+00
   1.9182569e+00
   2.0465910e+00
   1.8476819e+00
   1.1509426e+00
   2.4281308e-01
  -1.5286986e-01
  -3.8647374e-01
  -7.7716611e-01
  -4.7955152e-01
   8.7329381e-02
   5.4686285e-01
   2.8073558e-01
   9.4863270e-02
   3.3508796e-01
  -6.0307294e-01
  -1.1527955e+00
  -1.2570947e+00
  -1.2480210e+00
  -1.9938544e-01
   3.5748051e-01
   5.2607603e-01
   8.5435519e-01
   5.8745509e-01
   8.1118390e-02
  -2.6826177e-02
  -7.7369356e-01
  -1.1103867e+00
  -7.0052191e-01
  -4.0770031e-01
   2.1741070e-01
   7.9210041e-01
   6.7415993e-01
   1.0001234e+00
   1.8012513e-01
  -3.9808834e-01
  -8.8486984e-01
  -8.0160354e-01
  -9.5250286e-01
  -8.1666902e-02
   2.9123357e-01
   6.8644970e-01
   9.6787886e-01
   1.0586739e+00
   3.5633090e-01
  -2.4058328e-01
  -7.7000777e-01
  -4.8538623e-01
  -1.5760138e-01
   1.1634973e-02
   4.1911354e-01
   6.8679539e-01
   8.4486952e-01
   9.2586616e-01
   5.7129231e-01
  -3.9094439e-01
  -3.3598826e-01
  -1.2454659e+00
  -4.7020171e-01
   1.7944509e-01
   7.8987528e-01
   1.0112866e+00
   1.3411450e+00
   1.3477187e+00
   8.4401873e-01
   1.1208606e-01
  -1.0105784e-01
  -8.4195249e-01
  -5.3252373e-01
   2.5092127e-01
   1.0823723e+00
   1.0137972e+00
   1.3094039e+00
   1.0307475e+00
   7.2221012e-01
   6.0239177e-01
  -1.3135577e-01
  -4.5246411e-01
  -4.1353580e-01
   2.0695733e-02
   7.8357608e-01
   8.0283355e-01
   1.5444886e+00
   1.0995417e+00
   6.6816672e-01
   3.9108814e-02
  -3.4280230e-01
  -4.1113039e-01
  -3.3312104e-01
   2.4199980e-01
   5.2140509e-01
   8.7775179e-01
   1.2068505e+00
   9.9579763e-01
   8.7578453e-01
  -8.2498465e-02
  -5.2712609e-01
  -1.0127460e+00
  -6.7345838e-01
  -3.2318173e-01
   3.0782405e-01
   7.4260792e-01
   1.0750020e+00
   9.5246273e-01
   6.6073533e-01
  -4.8115078e-02
  -9.1606196e-01
  -9.8950425e-01
  -9.2630328e-01
  -3.0893307e-01
   4.8020068e-01
   4.9493581e-01
   1.0662011e+00
   9.0994714e-01
   4.0440150e-01
  -4.7028694e-01
  -8.8069617e-01
  -1.0845326e+00
  -1.0132425e+00
  -2.7084649e-01
   2.1762126e-01
   9.6467759e-01
   1.0687977e+00
   7.8355203e-01
   3.3651701e-01
  -4.9753629e-01
  -8.3382517e-01
  -9.2117595e-01
  -8.5547907e-01
   1.7526132e-01
   4.5398333e-01
   9.5981527e-01
   1.4141905e+00
   1.1973153e+00
   6.7422685e-01
  -1.6496022e-01
  -9.6817463e-01
  -1.2171789e+00
  -1.1360523e+00
  -4.0121478e-02
   5.3613154e-01
   7.1541888e-01
   8.1152391e-01
   8.1473430e-01
   1.2553617e-01
  -4.2213546e-01
  -1.1600752e+00
  -8.5262702e-01
  -6.3816306e-01
   1.0465423e-01
   4.7467207e-01
   1.5908798e-01
   1.0581882e+00
   7.3341791e-01
   7.0252949e-01
  -1.6775005e-01
  -7.6618410e-01
  -9.9212975e-01
  -8.7907351e-01
  -2.8342768e-01
   5.3413552e-01
   8.1730842e-01
   1.1039020e+00
   6.0255827e-01
   4.8018524e-02
  -5.0122753e-01
  -7.9599516e-01
  -1.1332372e+00
  -8.5384821e-01
  -2.4092685e-01
   3.9833564e-01
   9.8613415e-01
   9.4167504e-01
   6.5463755e-01
   1.6363674e-01
  -1.4623291e-02
  -6.4004670e-01
  -6.1175730e-01
  -1.1685459e+00
  -4.0160493e-01
  -1.5525814e-02
   8.5405537e-01
   7.1844279e-01
   7.1906947e-01
   6.5813759e-01
  -1.0482021e-01
  -6.0439772e-01
  -9.5469429e-01
  -1.0798819e+00
   5.2635303e-02
   4.4327217e-01
   7.3345900e-01
   1.1308749e+00
   6.9679871e-01
   3.3939571e-01
  -1.9739600e-01
  -8.9828930e-01
  -1.4135726e+00
  -5.7178038e-01
  -1.4392425e-01
   6.3144567e-01
   7.6642902e-01
   1.1894169e+00
   1.0478433e+00
   5.8203891e-01
   2.3652547e-01
  -7.2987676e-01
  -7.4394321e-01
  -4.7226127e-01
   1.7984505e-01
   1.0304674e+00
   7.9854949e-01
   1.2811383e+00
   1.0713243e+00
   7.6722151e-01
  -8.0349147e-02
  -6.0703079e-01
  -8.0139453e-01
  -5.5037579e-01
  -1.9053122e-01
   6.5049391e-01
   7.5008250e-01
   7.7374664e-01
   1.0667806e+00
   1.1474791e-01
  -2.0435681e-01
  -4.9929448e-01
  -5.4836360e-01
  -7.3074224e-01
   3.3600778e-01
   9.1869617e-02
   9.4295938e-01
   1.0464271e+00
   7.1869651e-01
   4.7500834e-01
  -1.2849565e-01
  -7.2941434e-01
  -1.2343952e+00
  -8.0911571e-01
  -4.6515077e-02
  -1.0353618e-02
   8.7559288e-01
   9.9226871e-01
   7.7187662e-01
   7.8366454e-01
  -5.6728872e-01
  -5.5795159e-01
  -8.8165353e-01
  -7.2654426e-01
  -4.0922262e-01
   2.4382278e-02
   7.2839582e-01
   7.8589379e-01
   7.1372135e-01
   2.3273125e-01
  -2.0916851e-01
  -7.8648560e-01
  -1.0235215e+00
  -6.4387333e-01
   2.3138678e-01
   1.1235030e+00
   1.7676094e+00
   1.9932339e+00
   1.9746633e+00
   1.2561093e+00
   9.9084887e-01
   3.7250643e-02
  -1.9581791e-01
   3.4980736e-01
   2.3752200e-01
   6.5384572e-01
   1.2514697e+00
   1.1430820e+00
   7.7754434e-01
  -1.9100342e-01
  -5.7277008e-01
  -1.0901722e+00
  -1.2169297e+00
  -1.1286581e+00
  -7.5442692e-01
   2.0790652e-01
   7.9315298e-01
   1.0520438e+00
   9.2466736e-01
   4.7612160e-01
  -7.2738230e-03
  -7.3213428e-01
  -6.9731993e-01
  -1.0966728e+00
  -2.4428634e-01
   5.5623201e-01
   9.8927941e-01
   7.9831053e-01
   7.7248404e-01
   3.6613117e-01
  -2.0822644e-01
  -5.4282792e-01
  -7.9358037e-01
  -7.3423857e-01
  -3.6127195e-01
   3.0398663e-01
   9.0135425e-01
   1.0462324e+00
   8.9737380e-01
   5.8836344e-01
   3.0903167e-02
  -7.9142530e-01
  -7.4782401e-01
  -7.2178561e-01
  -2.1369206e-01
   5.4208850e-01
   1.0953251e+00
   1.1634952e+00
   9.4037119e-01
   3.3688936e-01
  -1.2011163e-01
  -6.4222278e-01
  -8.4487532e-01
  -9.0251119e-01
  -1.5206377e-01
   1.0016198e+00
   1.2080109e+00
   1.5436908e+00
   1.2850644e+00
   5.1399078e-01
   3.3595229e-01
  -5.0602960e-01
  -5.2016572e-01
  -5.2959441e-01
   3.1603600e-01
   6.4816589e-01
   1.4105467e+00
   2.0054109e+00
   1.1126154e+00
   1.4240635e+00
   1.5550344e-01
  -3.8446297e-01
  -3.9629841e-01
  -3.0235021e-01
   1.8852997e-01
   6.2648861e-01
   1.4439930e+00
   1.5183355e+00
   1.2813538e+00
   6.5862538e-01
   6.8367612e-02
  -4.8065663e-01
  -9.6707729e-01
  -6.1072864e-01
  -9.0658832e-02
   2.7092759e-01
   1.1727512e+00
   1.2588663e+00
   1.1566554e+00
   3.4553400e-01
   4.3384237e-02
  -8.8137132e-01
  -9.4000439e-01
  -8.0763450e-01
  -2.2370092e-01
   2.0856927e-01
   9.9915937e-01
   1.0386258e+00
   9.3067383e-01
   7.2753105e-01
  -5.6594897e-01
  -6.4362513e-01
  -9.6867496e-01
  -4.7493967e-01
   1.0986991e-01
   6.4881825e-01
   9.5557428e-01
   1.2566041e+00
   6.8466895e-01
   1.5668239e-01
  -1.9484731e-01
  -7.5063666e-01
  -1.0940692e+00
  -6.7705577e-01
   1.5441702e-02
   3.4327258e-01
   5.1793123e-01
   9.7439687e-01
   6.9864437e-01
   1.8890076e-01
  -2.9432541e-01
  -1.1882653e+00
  -1.0840874e+00
  -1.1369652e+00
  -3.4310720e-01
   2.2671076e-01
   1.0620059e+00
   1.0338901e+00
   1.0884867e+00
   2.7425094e-01
  -4.5301653e-01
  -6.0247194e-01
  -1.1903687e+00
  -6.2397948e-01
  -4.6275493e-01
   3.5550162e-01
   9.8110773e-01
   9.3806589e-01
   6.3089487e-01
   7.8104322e-03
  -2.9509416e-01
  -4.0696883e-01
  -8.6821896e-01
  -6.9117838e-01
   2.0546143e-01
   2.0426919e-01
   1.1993920e+00
   9.6687262e-01
   6.1951653e-01
   2.3727916e-01
  -4.8061009e-01
  -8.8425338e-01
  -9.9624486e-01
  -8.5669582e-01
  -6.1820377e-01
   1.9151792e-01
   9.5998421e-01
   1.0272832e+00
   3.2361132e-01
   4.9355510e-01
  -5.9246363e-01
  -7.8879575e-01
  -8.4375083e-01
  -9.2905104e-01
  -3.7493810e-01
   1.5053587e-01
   8.6708006e-01
   7.2147281e-01
   1.0986558e+00
   4.3678971e-01
  -3.6852039e-01
  -1.1258185e+00
  -8.2570281e-01
  -7.8430625e-01
  -1.1406156e-01
   2.6494682e-01
   1.0589624e+00
   4.9379091e-01
   6.2755208e-01
   4.8305999e-01
  -4.6716475e-01
  -5.7635540e-01
  -8.4973385e-01
  -1.0859503e+00
  -2.9260306e-01
   4.6629521e-01
   9.8920723e-01
   9.1675664e-01
   1.0712507e+00
   8.2799033e-01
  -3.4923976e-02
  -6.8305499e-01
  -9.4002388e-01
  -7.5981134e-01
  -5.8241921e-01
   4.7422380e-01
   7.8626053e-01
   1.1447102e+00
   7.3332232e-01
   4.7884012e-01
  -2.4663188e-02
  -7.3671201e-01
  -6.1940385e-01
  -2.8944598e-01
  -4.0682688e-01
   4.2739015e-01
   8.2154707e-01
   9.0041729e-01
   8.3211787e-01
  -1.7431380e-01
  -2.1511655e-01
  -8.9463215e-01
  -6.8548368e-01
  -6.9111322e-01
  -2.4928397e-01
   5.8461972e-01
   6.9008670e-01
   1.2288443e+00
   1.1244998e+00
   2.2251202e-01
  -2.5071054e-01
  -8.3034037e-01
  -1.1007496e+00
  -5.8039521e-01
  -6.4751765e-02
   2.2984477e-01
   7.6004964e-01
   1.1176345e+00
   5.7229643e-01
   5.2648274e-01
  -2.5166100e-01
  -8.7476222e-01
  -1.1495623e+00
  -7.9677198e-01
  -5.8825923e-01
   4.6550792e-03
   8.0803334e-01
   8.4546443e-01
   5.9092053e-01
   3.0417213e-01
  -1.0685758e-01
  -1.0015856e+00
  -1.1487576e+00
  -9.9878724e-01
  -4.0470690e-01
   4.2347453e-01
   1.0392391e+00
   1.7965562e+00
   1.3061761e+00
   1.1080685e+00
   6.1260035e-01
   4.2726050e-01
   2.4340437e-02
   1.7728509e-01
   5.9420367e-01
   1.2454654e+00
   1.1990338e+00
   1.4475567e+00
   5.0257064e-01
   1.5042420e-01
  -5.7506435e-01
  -1.1865285e+00
  -1.4918765e+00
  -1.2346953e+00
  -4.9374366e-01
  -2.5121449e-01
   5.2385088e-01
   8.3722340e-01
   4.9103832e-01
   1.6854731e-01
  -3.3434696e-01
  -7.9778257e-01
  -1.3054364e+00
  -1.0811248e+00
  -4.3599580e-01
   6.0947243e-01
   6.0781623e-01
   9.3696258e-01
   2.5169630e-01
   1.5669961e-01
  -5.2483247e-01
  -8.6378133e-01
  -8.6339478e-01
  -9.5398530e-01
  -3.4903000e-01
  -1.9584127e-04
   1.0811619e+00
   9.2441254e-01
   7.8964950e-01
   2.1117643e-01
  -6.1369396e-01
  -9.7810745e-01
  -9.4564684e-01
  -9.0936334e-01
  -2.0053139e-01
   5.9895744e-01
   8.8874430e-01
   8.8723487e-01
   9.1391178e-01
   4.6831126e-01
   2.4847192e-01
  -8.2037627e-01
  -4.1383149e-01
  -1.6871109e-01
  -2.2699691e-01
   6.5689022e-01
   8.7125123e-01
   1.2891282e+00
   9.6514078e-01
   2.1647688e-01
  -1.3202496e-01
  -5.2630450e-01
  -4.0996292e-01
  -5.0199799e-01
   2.2204212e-02
   4.5888436e-01
   1.0181592e+00
   1.3066960e+00
   8.5906551e-01
   8.0479410e-01
   2.0809941e-01
  -1.3997913e-01
  -7.5702792e-01
  -4.6167033e-01
   1.3394383e-02
   6.1428036e-01
   1.1182713e+00
   1.1595862e+00
   1.0730277e+00
   7.1423652e-01
   2.7312417e-02
  -4.8151408e-01
  -1.1061448e+00
  -4.9360380e-01
  -3.4231502e-01
   4.4688041e-01
   1.3005974e+00
   9.2056800e-01
   1.1108198e+00
   5.8294015e-01
  -4.2842656e-01
  -4.1543461e-01
  -7.0467974e-01
  -8.4213892e-01
  -5.6590431e-01
   3.3043636e-01
   6.2104494e-01
   1.0672849e+00
   6.4547712e-01
   3.2347524e-01
  -6.6338374e-01
  -7.9794290e-01
  -1.4973943e+00
  -8.5827319e-01
  -5.9173657e-01
   3.8542354e-01
   9.0281648e-01
   8.9867768e-01
   5.0535079e-01
   2.3214734e-01
  -4.7798617e-01
  -4.1528162e-01
  -1.2402782e+00
  -7.6029669e-01
  -1.1539762e-01
   4.5111549e-01
   1.1014691e+00
   8.9490461e-01
   8.2900794e-01
   4.8111423e-01
  -7.7432684e-01
  -1.0531864e+00
  -9.8182416e-01
  -9.2306869e-01
  -3.9439420e-01
   1.0536510e-01
   8.6188621e-01
   1.1218819e+00
   7.8111052e-01
   2.7742095e-01
  -4.5511833e-01
  -8.8989779e-01
  -6.4030004e-01
  -7.4546857e-01
  -5.5756051e-01
  -1.1429757e-01
   7.4186691e-01
   8.5979298e-01
   7.3029421e-01
  -1.3647314e-01
  -2.4349253e-01
  -8.3760735e-01
  -1.1192612e+00
  -9.9247517e-01
  -3.0019303e-01
   4.0212763e-01
   7.2579912e-01
   9.4278998e-01
   6.7360494e-01
  -4.8193450e-03
  -2.5488295e-01
  -6.5400882e-01
  -1.0767715e+00
  -9.7377997e-01
  -1.4110027e-01
   2.5097683e-01
   5.8209295e-01
   1.0965741e+00
   8.2473259e-01
   5.1697672e-02
  -5.0640571e-01
  -8.3506194e-01
  -9.3705912e-01
  -8.2145420e-01
  -3.3723173e-01
   7.7722566e-02
   6.7181849e-01
   9.4953717e-01
   7.5991639e-01
   6.0485259e-01
  -2.2965404e-01
  -8.5917517e-01
  -1.3326142e+00
  -7.9934789e-01
  -4.7420501e-01
   4.0333093e-01
   6.7416401e-01
   9.6345886e-01
   7.0996281e-01
   5.2110912e-01
  -6.1034213e-01
  -7.7192813e-01
  -1.0384994e+00
  -7.4871749e-01
  -1.3540038e-01
   1.5645187e-01
   5.2463886e-01
   8.2357750e-01
   6.5323090e-01
   3.1907911e-01
   5.3384586e-02
  -9.1562055e-01
  -8.1779404e-01
  -6.0388237e-01
  -2.2209539e-01
   7.5211512e-01
   8.5248837e-01
   1.0258872e+00
   6.8728020e-01
   1.5341495e-01
  -3.4432965e-01
  -8.3541882e-01
  -7.8422329e-01
  -9.8522004e-01
  -6.0737097e-02
   3.7498654e-01
   1.0013989e+00
   1.1762733e+00
   9.3603938e-01
   6.1027115e-01
   1.1684436e-01
  -6.3436512e-01
  -9.8365319e-01
  -8.1995959e-01
   9.0602461e-02
   2.8698657e-01
   1.1971867e+00
   7.8364579e-01
   6.0729184e-01
  -1.7934875e-01
  -5.2573032e-01
  -1.1277970e+00
  -1.2669181e+00
  -4.3669715e-01
  -3.4765916e-01
   1.7566021e-01
   8.9520778e-01
   6.1054494e-01
   1.2279090e+00
   9.1883891e-02
  -4.0006663e-01
  -6.1712859e-01
  -1.0152001e+00
  -8.3688536e-01
  -2.1576528e-01
   3.8112536e-01
   7.9433884e-01
   7.4510645e-01
   2.7399544e-01
   1.5401669e-02
  -7.1040155e-02
  -1.3149922e+00
  -1.3626165e+00
  -8.9655603e-01
  -8.5631753e-01
   3.5468052e-01
   7.7551112e-01
   1.4413770e+00
   1.3964847e+00
   1.1329700e+00
   6.2116418e-01
   1.6827534e-01
   1.0790624e-01
  -2.7629955e-01
   6.5098708e-01
   1.2597595e+00
   1.2316276e+00
   1.8265362e+00
   1.1729778e+00
  -5.6483090e-04
  -6.1630613e-01
  -1.1345628e+00
  -1.1298591e+00
  -1.3649806e+00
  -6.0667609e-01
  -8.2641600e-02
   5.3414778e-01
   3.7695810e-01
   2.9798995e-01
   8.3275457e-02
  -9.7803251e-01
  -1.0506384e+00
  -1.1762585e+00
  -1.2766386e+00
  -4.2788952e-01
   4.5508597e-01
   7.8653449e-01
   1.2811977e+00
   5.9174256e-01
   1.0540797e-01
  -4.8229537e-01
  -8.9581924e-01
  -5.9030896e-01
  -8.3017151e-01
  -2.4594789e-01
   1.2857890e-01
   7.3104511e-01
   6.7205741e-01
   1.1264895e+00
   4.2015283e-01
  -8.2205875e-02
  -9.6675860e-01
  -1.0558380e+00
  -8.0747753e-01
  -2.9324745e-01
   3.2382403e-01
   6.8254018e-01
   1.4435938e+00
   8.4753544e-01
  -2.4156812e-02
  -2.1604269e-01
  -1.0734077e+00
  -9.1726432e-01
  -4.5058429e-01
   4.7233552e-02
   3.7970189e-01
   9.5707755e-01
   1.0510355e+00
   1.2864911e+00
   2.3952797e-01
   1.9853459e-01
  -2.4568706e-01
  -5.0675487e-01
  -7.6163725e-01
  -1.6495501e-01
   4.3626293e-01
   1.3061471e+00
   1.2101567e+00
   1.0554728e+00
   1.2005911e+00
   1.7747416e-01
  -3.8746948e-01
  -3.4010289e-01
  -3.7503179e-01
  -2.6543696e-02
   6.3921589e-01
   7.5492654e-01
   1.4327235e+00
   9.5527714e-01
   4.6439398e-01
   1.9164969e-02
  -3.4806246e-01
  -8.8781832e-01
  -8.2508636e-01
  -1.2408700e-01
   8.8317344e-01
   7.0681815e-01
   1.1749733e+00
   1.0562617e+00
   3.9309241e-01
   1.9530179e-02
  -7.5642327e-01
  -8.3398217e-01
  -6.9419330e-01
  -1.2810095e-01
   1.2599910e-01
   7.7245253e-01
   1.1117194e+00
   1.0603699e+00
   6.5826393e-01
  -1.0884234e-01
  -7.3273148e-01
  -1.2588914e+00
  -1.2567993e+00
  -3.0823843e-01
   5.3002051e-01
   8.0702739e-01
   1.2877081e+00
   7.4411250e-01
   1.2417292e-01
   3.4232836e-02
  -1.0495787e+00
  -1.0530367e+00
  -8.6771407e-01
  -4.8792220e-01
   4.3237841e-01
   6.0795029e-01
   8.6448135e-01
   8.2916178e-01
   6.4875707e-02
  -7.3838799e-01
  -8.9177508e-01
  -1.2696070e+00
  -7.5663852e-01
   7.4814282e-02
  -2.4500036e-03
   6.5237482e-01
   1.1321276e+00
   1.0416458e+00
   1.0923594e-01
  -2.9095899e-01
  -1.1063454e+00
  -1.4785559e+00
  -1.1255487e+00
  -2.2750866e-01
  -3.4499257e-03
   8.0383142e-01
   7.9965370e-01
   5.8354954e-01
   4.6398794e-01
  -4.2675683e-01
  -1.0157322e+00
  -1.3230467e+00
  -6.4927680e-01
  -2.0604465e-01
   1.7533808e-01
   5.2573062e-01
   9.5766563e-01
   5.9769026e-01
   3.2490916e-01
  -2.1993612e-01
  -1.1112037e+00
  -7.0439399e-01
  -5.0317709e-01
  -3.9386136e-01
   2.5577643e-01
   6.9850055e-01
   1.2728694e+00
   5.7167540e-01
   1.7580883e-01
  -3.9424843e-01
  -1.1009082e+00
  -1.0377299e+00
  -6.9626044e-01
  -2.6300649e-01
   2.4325091e-01
   6.2198436e-01
   6.6646167e-01
   1.1758415e+00
   5.1687531e-01
  -4.9460839e-01
  -8.7247397e-01
  -1.1787442e+00
  -9.4854505e-01
  -3.2887184e-01
   2.5370123e-01
   7.9612327e-01
   1.1204993e+00
   4.1226355e-01
   5.2560566e-01
  -3.7159390e-01
  -8.0573938e-01
  -1.1121516e+00
  -8.0855708e-01
  -6.7400757e-01
   3.3582095e-01
   9.7480432e-01
   8.9187836e-01
   8.7736454e-01
   2.1968743e-01
  -2.3601978e-01
  -7.0428775e-01
  -8.3857465e-01
  -8.4645631e-01
   1.3093500e-02
   3.2213203e-01
   9.8352679e-01
   8.5794029e-01
   1.0584231e+00
   6.3727079e-01
  -3.7121711e-01
  -6.8913701e-01
  -6.5475016e-01
  -6.7733204e-01
   1.1832333e-01
   4.9333643e-01
   1.1344909e+00
   1.1436054e+00
   9.1233902e-01
   5.1212340e-01
  -8.2919117e-02
  -6.6652458e-01
  -3.4546635e-01
  -9.0504570e-01
  -1.4026264e-01
   6.7776750e-01
   7.8164049e-01
   1.2063574e+00
   1.4120027e+00
   5.6672885e-01
   2.0855601e-02
  -4.3134997e-01
  -1.1116512e+00
  -1.1263418e+00
  -1.6260542e-01
   1.5250511e-01
   1.0488563e+00
   9.3015109e-01
   6.0828171e-01
   3.7518983e-01
  -2.8447537e-01
  -7.8810484e-01
  -1.0245788e+00
  -9.7530908e-01
  -6.1314001e-02
   4.2393147e-01
   6.5208141e-01
   1.0534160e+00
   8.5875197e-01
   3.8362617e-01
  -3.6228214e-01
  -9.1868253e-01
  -1.1872742e+00
  -1.0798872e+00
  -4.6225630e-01
   3.5082023e-01
   6.5707933e-01
   8.4955801e-01
   9.7404842e-01
  -2.9540065e-01
  -5.5593348e-01
  -7.8798538e-01
  -1.3022857e+00
  -6.3255695e-01
  -1.6047568e-01
   5.6078688e-01
   1.4323733e+00
   1.5515443e+00
   1.5529042e+00
   9.5384304e-01
   1.0577765e+00
   4.4692447e-01
   2.9733953e-01
   5.1193546e-01
   6.9872091e-01
   1.4107856e+00
   1.2921699e+00
   1.3115134e+00
   7.9137432e-01
   5.1784260e-01
  -3.3158326e-01
  -1.2662658e+00
  -1.0144565e+00
  -1.0642617e+00
  -7.4501077e-01
   2.6384412e-01
   6.7735195e-01
   5.9000827e-01
   1.2963350e+00
   2.5655571e-01
  -3.5732050e-01
  -8.3615008e-01
  -6.1030239e-01
  -6.4688359e-01
  -9.1072645e-02
   5.8822734e-02
   1.0257826e+00
   9.9210830e-01
   8.2279802e-01
   6.3472029e-03
  -1.7975265e-01
  -8.9947478e-01
  -1.0790521e+00
  -7.2996136e-01
  -4.0064399e-01
  -9.8608962e-02
   7.8834918e-01
   7.5925487e-01
   1.1056739e+00
   1.6242023e-01
  -1.4811007e-01
  -7.9718941e-01
  -6.6974056e-01
  -8.6504545e-01
  -1.4155980e-01
   5.0182214e-01
   8.2433040e-01
   8.2168360e-01
   9.9194040e-01
   4.3192477e-01
   4.1598725e-01
  -7.1775032e-01
  -1.1068028e+00
  -5.6643493e-01
  -3.9033479e-02
   6.6922828e-01
   1.0824512e+00
   1.3056749e+00
   1.2175284e+00
   4.2177951e-01
   1.1317883e-01
  -6.1853292e-02
  -6.1271687e-01
  -4.9573398e-01
   1.6782051e-01
   8.0679609e-01
   1.2633143e+00
   1.9555317e+00
   1.1406181e+00
   6.8352828e-01
   1.7958132e-01
  -4.6494613e-01
  -3.0761179e-01
  -2.7964117e-01
   4.2714663e-01
   9.9079880e-01
   1.3860712e+00
   1.5638515e+00
   1.3854666e+00
   6.9856900e-01
   6.7173846e-01
  -7.7585358e-01
  -7.4268487e-01
  -3.8840399e-01
  -4.0966165e-01
   3.4961170e-01
   1.0998563e+00
   9.6333693e-01
   1.1962710e+00
   7.1660338e-01
  -3.6742212e-01
  -5.1963255e-01
  -8.9854647e-01
  -3.9774618e-01
  -9.3718913e-03
   5.5897230e-01
   7.4773016e-01
   1.1826850e+00
   6.5106585e-01
   4.3991536e-01
  -1.9118827e-01
  -1.0629993e+00
  -9.6584741e-01
  -6.4849754e-01
  -1.1060492e-01
   4.0322927e-01
   6.5291715e-01
   1.2347769e+00
   7.5358214e-01
   8.7962657e-02
  -3.6225084e-01
  -9.1426561e-01
  -9.2373231e-01
  -6.2902777e-01
  -5.1617672e-01
   1.4164017e-01
   7.1757961e-01
   1.1109521e+00
   9.1879900e-01
   3.5250407e-01
  -1.5027099e-01
  -6.2354881e-01
  -1.1822168e+00
  -9.0575367e-01
  -2.6987054e-01
   2.4681516e-01
   8.0421185e-01
   8.4588064e-01
   9.7323298e-01
   2.8439362e-01
   2.8990437e-02
  -5.8426186e-01
  -1.3667408e+00
  -8.0593310e-01
   2.3159821e-02
   3.7652178e-01
   1.0046047e+00
   9.2533099e-01
   7.2566599e-01
   1.6106113e-01
  -3.9618701e-01
  -5.3051765e-01
  -9.0611043e-01
  -6.4547687e-01
   1.6345924e-01
   1.6689428e-01
   1.1489862e+00
   1.0181608e+00
   5.6295938e-01
   5.6718944e-02
  -4.9836204e-01
  -1.0362500e+00
  -1.1860997e+00
  -4.4222486e-01
  -7.3432679e-01
   1.9494895e-01
   1.3334362e+00
   1.5022330e+00
   7.2591824e-01
   5.3715053e-01
  -5.3780618e-01
  -8.1287127e-01
  -6.7225842e-01
  -6.5450093e-01
  -3.5194984e-01
   4.1834004e-01
   5.6522319e-01
   1.0313742e+00
   1.0301753e+00
   1.8388118e-01
   5.2324421e-03
  -8.2570946e-01
  -1.1282278e+00
  -4.4191208e-01
  -1.2204534e-01
   1.3487850e-01
   7.9151217e-01
   6.2938162e-01
   4.3112155e-01
   2.6959355e-01
  -5.8137261e-01
  -1.0142300e+00
  -1.1769483e+00
  -8.4817905e-01
  -6.6449450e-01
   6.9615139e-01
   7.1961002e-01
   1.2068291e+00
   1.0231901e+00
   7.7778518e-01
  -9.1718091e-02
  -6.4853702e-01
  -1.0455523e+00
  -8.0136580e-01
  -1.3551948e-01
   6.9120019e-01
   1.0414070e+00
   8.7598178e-01
   1.0179722e+00
   5.5326982e-01
  -2.4213880e-01
  -6.6201112e-01
  -1.0794825e+00
  -5.9834884e-01
   2.0788152e-01
   4.2640363e-01
   1.1659445e+00
   1.5714602e+00
   1.0340041e+00
   5.4884512e-01
   1.4697265e-01
  -5.3024257e-01
  -3.9736376e-01
  -5.9912709e-01
   9.6633881e-02
   3.8273555e-01
   9.3710979e-01
   1.2606401e+00
   7.9746456e-01
   3.5292799e-01
   2.0878899e-01
  -6.9933936e-01
  -1.0327993e+00
  -6.2500712e-01
  -1.7296558e-01
   6.2836832e-01
   1.0603449e+00
   1.2127318e+00
   9.4374297e-01
   4.2027439e-01
  -3.1132014e-01
  -9.3448643e-01
  -8.8954582e-01
  -5.6068745e-01
  -3.9919537e-01
   9.5285571e-02
   7.7707642e-01
   9.6458232e-01
   8.1221686e-01
   2.4786150e-01
  -4.8887353e-01
  -1.0434911e+00
  -8.8533358e-01
  -8.9388796e-01
  -5.9943908e-01
   1.2557277e-01
   9.1514522e-01
   9.1863034e-01
   5.6008017e-01
   5.4437349e-01
  -2.5448333e-01
  -4.8026580e-01
  -5.3050384e-01
  -5.0176371e-02
   5.4876789e-01
   1.0852278e+00
   1.7779226e+00
