   1.0724145e+00
   1.0284782e+00
   9.1360342e-01
   7.4511580e-01
   5.4668733e-01
   3.3986494e-01
   1.4385554e-01
  -2.5158072e-02
  -1.5914514e-01
  -2.5547782e-01
  -3.1429890e-01
  -3.3851649e-01
  -3.3380400e-01
  -3.0816823e-01
  -2.6962832e-01
  -2.2620162e-01
  -1.8407739e-01
  -1.4742552e-01
  -1.1839653e-01
  -9.7121573e-02
  -8.2270758e-02
  -7.2404419e-02
  -6.5990934e-02
  -6.1762736e-02
  -5.8719221e-02
  -5.6126754e-02
  -5.3518662e-02
  -5.0695242e-02
  -4.7710462e-02
  -4.4486294e-02
  -4.0910357e-02
  -3.6939090e-02
  -3.2530170e-02
  -2.7642510e-02
  -2.2236261e-02
  -1.6272814e-02
  -9.7147949e-03
  -2.5260682e-03
   5.3278513e-03
   1.3856836e-02
   2.3086782e-02
   3.3050765e-02
   4.3770021e-02
   5.5253951e-02
   6.7500116e-02
   8.0494239e-02
   9.4210205e-02
   1.0861006e-01
   1.2364402e-01
   1.3925044e-01
   1.5535586e-01
   1.7187498e-01
   1.8871065e-01
   2.0575389e-01
   2.2288388e-01
   2.3996795e-01
   2.5686162e-01
   2.7340917e-01
   2.8950654e-01
   3.0500904e-01
   3.1973514e-01
   3.3351854e-01
   3.4620818e-01
   3.5766824e-01
   3.6777814e-01
   3.7643252e-01
   3.8354128e-01
   3.8902954e-01
   3.9283766e-01
   3.9492124e-01
   3.9525113e-01
   3.9381339e-01
   3.9060933e-01
   3.8562566e-01
   3.7874873e-01
   3.7012037e-01
   3.5992075e-01
   3.4832417e-01
   3.3549896e-01
   3.2160757e-01
   3.0680651e-01
   2.9124641e-01
   2.7507194e-01
   2.5842188e-01
   2.4142908e-01
   2.2422049e-01
   2.0691713e-01
   1.8963410e-01
   1.7248060e-01
   1.5555990e-01
   1.3896936e-01
   1.2280042e-01
   1.0713861e-01
   9.2063525e-02
   7.7648872e-02
   6.3962420e-02
   5.1066031e-02
   3.9015645e-02
   2.7861215e-02
   1.7621864e-02
   8.2602029e-03
  -2.6677907e-04
  -8.0013736e-03
  -1.4985153e-02
  -2.1258970e-02
  -2.6862958e-02
  -3.1836532e-02
  -3.6218385e-02
  -4.0046493e-02
  -4.3358113e-02
  -4.6189779e-02
  -4.8577310e-02
  -5.0555803e-02
  -5.2159637e-02
  -5.3422469e-02
  -5.4377239e-02
  -5.5056168e-02
  -5.5490756e-02
  -5.5711783e-02
  -5.5749312e-02
  -5.5632686e-02
  -5.5390526e-02
  -5.5050737e-02
  -5.4627093e-02
  -5.4086358e-02
  -5.3442056e-02
  -5.2712578e-02
  -5.1914767e-02
  -5.1063922e-02
  -5.0173796e-02
  -4.9256597e-02
  -4.8322989e-02
  -4.7382089e-02
  -4.6441471e-02
  -4.5507160e-02
  -4.4583639e-02
  -4.3673845e-02
  -4.2779169e-02
  -4.1899457e-02
  -4.1033011e-02
  -4.0176586e-02
  -3.9325393e-02
  -3.8473097e-02
  -3.7611817e-02
  -3.6733050e-02
  -3.5838981e-02
  -3.4935945e-02
  -3.4029534e-02
  -3.3124588e-02
  -3.2225201e-02
  -3.1334719e-02
  -3.0455739e-02
  -2.9590111e-02
  -2.8738935e-02
  -2.7902565e-02
  -2.7080606e-02
  -2.6271916e-02
  -2.5474603e-02
  -2.4686029e-02
  -2.3902807e-02
  -2.3120801e-02
  -2.2335129e-02
  -2.1540159e-02
  -2.0729513e-02
  -1.9896063e-02
  -1.9031933e-02
  -1.8128501e-02
  -1.7176395e-02
  -1.6165496e-02
  -1.5084935e-02
  -1.3923099e-02
  -1.2667622e-02
  -1.1300974e-02
  -9.7737364e-03
  -8.0245352e-03
  -5.9878711e-03
  -3.5936224e-03
  -7.6704440e-04
   2.5712300e-03
   6.5051909e-03
   1.1123451e-02
   1.6519245e-02
   2.2790432e-02
   3.0039493e-02
   3.8373530e-02
   4.7887059e-02
   5.8606432e-02
   7.0554463e-02
   8.3713670e-02
   9.8021888e-02
   1.1337228e-01
   1.2961331e-01
   1.4654880e-01
   1.6393785e-01
   1.8149491e-01
   1.9888975e-01
   2.1574744e-01
   2.3164839e-01
   2.4617584e-01
   2.5902617e-01
   2.6982131e-01
   2.7824798e-01
   2.8407079e-01
   2.8713225e-01
   2.8735278e-01
   2.8473070e-01
   2.7934223e-01
   2.7134149e-01
   2.6096053e-01
   2.4850925e-01
   2.3427615e-01
   2.1863535e-01
   2.0204764e-01
   1.8493137e-01
   1.6766246e-01
   1.5057439e-01
   1.3395824e-01
   1.1806263e-01
   1.0309375e-01
   8.9215378e-02
   7.6548840e-02
   6.5173043e-02
   5.5089753e-02
   4.6106433e-02
   3.8338607e-02
   3.1867122e-02
   2.6660250e-02
   2.2573685e-02
   1.9350542e-02
   1.6621360e-02
   1.3904099e-02
   1.0604142e-02
   6.0142953e-03
  -6.8521471e-04
  -1.0406160e-02
  -2.4270614e-02
  -4.3171041e-02
  -6.6696985e-02
  -9.3056885e-02
  -1.1907807e-01
  -1.4032944e-01
  -1.5054479e-01
  -1.4322090e-01
  -1.1250672e-01
  -5.3203432e-02
   3.9028893e-02
   1.6571591e-01
   3.2448316e-01
   5.0734508e-01
   7.0048013e-01
   8.8423080e-01
   1.0335619e+00
   1.1259194e+00
   1.1480897e+00
   1.0962832e+00
   9.7622359e-01
   8.0314757e-01
   6.0159875e-01
   3.9480340e-01
   1.9889634e-01
   2.6859816e-02
  -1.1253470e-01
  -2.1472650e-01
  -2.7936563e-01
  -3.1018199e-01
  -3.1157163e-01
  -2.9102447e-01
  -2.5650773e-01
  -2.1484269e-01
  -1.7170470e-01
  -1.3162316e-01
  -9.7981522e-02
  -7.2432411e-02
  -5.3857480e-02
  -4.0739452e-02
  -3.1722734e-02
  -2.5613413e-02
  -2.1379262e-02
  -1.8149736e-02
  -1.5238267e-02
  -1.2349887e-02
  -9.3743917e-03
  -6.2146927e-03
  -2.7877002e-03
   9.7567907e-04
   5.1305414e-03
   9.7179861e-03
   1.4765115e-02
   2.0286092e-02
   2.6309959e-02
   3.2886955e-02
   4.0061761e-02
   4.7872056e-02
   5.6348514e-02
   6.5514806e-02
   7.5387596e-02
   8.5976546e-02
   9.7284314e-02
   1.0930655e-01
   1.2203191e-01
   1.3544203e-01
   1.4951155e-01
   1.6420812e-01
   1.7949279e-01
   1.9534266e-01
   2.1167892e-01
   2.2839083e-01
   2.4536596e-01
   2.6249013e-01
   2.7964747e-01
   2.9672038e-01
   3.1358956e-01
   3.3013399e-01
   3.4623093e-01
   3.6175592e-01
   3.7658280e-01
   3.9058369e-01
   4.0362900e-01
   4.1558741e-01
   4.2632589e-01
   4.3570971e-01
   4.4360393e-01
   4.4992953e-01
   4.5464140e-01
   4.5769854e-01
   4.5907432e-01
   4.5875656e-01
   4.5674748e-01
   4.5306372e-01
   4.4773635e-01
   4.4081084e-01
   4.3234709e-01
   4.2241942e-01
   4.1111655e-01
   3.9854165e-01
   3.8481227e-01
   3.7006041e-01
   3.5443246e-01
   3.3808925e-01
   3.2120603e-01
   3.0394698e-01
   2.8639422e-01
   2.6868965e-01
   2.5097298e-01
   2.3337290e-01
   2.1600708e-01
   1.9898221e-01
   1.8239391e-01
   1.6632684e-01
   1.5085461e-01
   1.3603982e-01
   1.2193407e-01
   1.0857794e-01
   9.6000986e-02
   8.4221753e-02
   7.3247775e-02
   6.3075570e-02
   5.3698198e-02
   4.5143857e-02
   3.7379093e-02
   3.0357887e-02
   2.4035543e-02
   1.8368691e-02
   1.3315285e-02
   8.8346026e-03
   4.8872472e-03
   1.4351463e-03
  -1.5584482e-03
  -4.1289598e-03
  -6.3104873e-03
  -8.1358053e-03
  -9.6363637e-03
  -1.0842288e-02
  -1.1782378e-02
  -1.2484112e-02
  -1.2973640e-02
  -1.3275790e-02
  -1.3414064e-02
  -1.3410642e-02
  -1.3286376e-02
  -1.3060795e-02
  -1.2752105e-02
  -1.2377185e-02
  -1.1951368e-02
  -1.1465609e-02
  -1.0916577e-02
  -1.0315301e-02
  -9.6719488e-03
  -8.9958300e-03
  -8.2953923e-03
  -7.5782240e-03
  -6.8510529e-03
  -6.1197468e-03
  -5.3893132e-03
  -4.6638996e-03
  -3.9467931e-03
  -3.2404208e-03
  -2.5463496e-03
  -1.8652861e-03
  -1.1970770e-03
  -5.4070841e-04
   1.0569337e-04
   7.4486238e-04
   1.3803928e-03
   2.0167390e-03
   2.6551941e-03
   3.2907495e-03
   3.9222825e-03
   4.5489569e-03
   5.1701368e-03
   5.7853873e-03
   6.3944739e-03
   6.9973628e-03
   7.5942209e-03
   8.1854155e-03
   8.7715148e-03
   9.3532874e-03
   9.9317028e-03
   1.0507931e-02
   1.1083342e-02
   1.1659508e-02
   1.2238200e-02
   1.2821391e-02
   1.3411253e-02
   1.4010162e-02
   1.4624429e-02
   1.5272915e-02
   1.5956890e-02
   1.6681532e-02
   1.7459130e-02
   1.8309088e-02
   1.9257925e-02
   2.0339276e-02
   2.1593887e-02
   2.3069622e-02
   2.4821458e-02
   2.6911486e-02
   2.9408913e-02
   3.2390059e-02
   3.5938360e-02
   4.0119162e-02
   4.4964706e-02
   5.0637821e-02
   5.7282282e-02
   6.5007847e-02
   7.3890266e-02
   8.3971274e-02
   9.5258594e-02
   1.0772593e-01
   1.2131299e-01
   1.3592545e-01
   1.5143499e-01
   1.6767926e-01
   1.8446191e-01
   2.0155256e-01
   2.1872272e-01
   2.3570616e-01
   2.5203516e-01
   2.6727829e-01
   2.8105562e-01
   2.9303872e-01
   3.0295063e-01
   3.1056592e-01
   3.1571061e-01
   3.1826226e-01
   3.1814990e-01
   3.1535404e-01
   3.0990671e-01
   3.0188925e-01
   2.9143197e-01
   2.7888005e-01
   2.6461947e-01
   2.4901916e-01
   2.3243102e-01
   2.1518985e-01
   1.9761343e-01
   1.8000247e-01
   1.6264062e-01
   1.4579449e-01
   1.2971362e-01
   1.1463049e-01
   1.0070400e-01
   8.7968578e-02
   7.6487484e-02
   6.6288078e-02
   5.7359751e-02
   4.9653923e-02
   4.3084040e-02
   3.7525576e-02
   3.2816032e-02
   2.8754938e-02
   2.5103850e-02
   2.1586352e-02
   1.7904978e-02
   1.3451436e-02
   6.9609106e-03
  -2.6218457e-03
  -1.6044472e-02
  -3.3747002e-02
  -5.5861861e-02
  -8.2011754e-02
  -1.0940666e-01
  -1.3371995e-01
  -1.5018119e-01
  -1.5358401e-01
  -1.3828607e-01
  -9.8300648e-02
  -2.9408371e-02
   7.2520395e-02
   2.0816428e-01
   3.7337163e-01
   5.5916048e-01
   7.5177215e-01
   9.3423327e-01
   1.0809748e+00
   1.1705766e+00
   1.1906040e+00
   1.1376074e+00
   1.0171217e+00
   8.4378027e-01
   6.4196447e-01
   4.3474108e-01
   2.4026837e-01
   7.1796194e-02
  -6.2334100e-02
  -1.5847462e-01
  -2.1752648e-01
  -2.4307910e-01
  -2.4032714e-01
  -2.1606714e-01
  -1.7863328e-01
  -1.3587913e-01
  -9.3845294e-02
  -5.6824071e-02
  -2.7182747e-02
  -5.3635957e-03
   9.8426190e-03
   1.9862089e-02
   2.6268784e-02
   3.0377588e-02
   3.3206019e-02
   3.5474224e-02
   3.7604983e-02
   3.9758869e-02
   4.2102418e-02
   4.4712672e-02
   4.7642545e-02
   5.0941672e-02
   5.4656410e-02
   5.8829837e-02
   6.3501750e-02
   6.8708670e-02
   7.4483054e-02
   8.0828226e-02
   8.7783073e-02
   9.5399759e-02
   1.0371962e-01
   1.1277318e-01
   1.2258012e-01
   1.3314929e-01
   1.4447875e-01
   1.5655570e-01
   1.6935652e-01
   1.8284677e-01
   1.9698119e-01
   2.1170369e-01
   2.2694736e-01
   2.4263444e-01
   2.5867636e-01
   2.7497375e-01
   2.9141637e-01
   3.0788318e-01
   3.2425294e-01
   3.4044873e-01
   3.5629955e-01
   3.7162586e-01
   3.8626019e-01
   4.0004718e-01
   4.1284357e-01
   4.2451818e-01
   4.3495195e-01
   4.4403790e-01
   4.5168114e-01
   4.5779891e-01
   4.6232050e-01
   4.6518735e-01
   4.6635294e-01
   4.6578290e-01
   4.6345492e-01
   4.5933863e-01
   4.5331129e-01
   4.4548659e-01
   4.3602521e-01
   4.2508381e-01
   4.1281501e-01
   3.9936748e-01
   3.8488584e-01
   3.6951070e-01
   3.5337869e-01
   3.3662241e-01
   3.1937047e-01
   3.0174744e-01
   2.8387391e-01
   2.6586646e-01
   2.4783764e-01
   2.2989602e-01
   2.1214615e-01
   1.9468856e-01
   1.7761979e-01
   1.6103236e-01
   1.4501479e-01
   1.2965158e-01
   1.1502323e-01
   1.0120624e-01
   8.8272739e-02
   7.6242515e-02
   6.5079044e-02
   5.4750857e-02
   4.5226141e-02
   3.6472745e-02
   2.8458173e-02
   2.1149588e-02
   1.4513813e-02
   8.5173271e-03
   3.1262684e-03
  -1.6935668e-03
  -5.9767240e-03
  -9.7580906e-03
  -1.3072896e-02
  -1.5956710e-02
  -1.8445447e-02
  -2.0575360e-02
  -2.2383045e-02
  -2.3905442e-02
  -2.5179829e-02
  -2.6243829e-02
  -2.7135404e-02
  -2.7892530e-02
  -2.8531811e-02
  -2.9059009e-02
  -2.9485002e-02
  -2.9820197e-02
  -3.0074529e-02
  -3.0257460e-02
  -3.0377981e-02
  -3.0444609e-02
  -3.0465392e-02
  -3.0447903e-02
  -3.0399244e-02
  -3.0326044e-02
  -3.0234461e-02
  -3.0130179e-02
  -3.0018413e-02
  -2.9903902e-02
  -2.9790916e-02
  -2.9683250e-02
  -2.9583008e-02
  -2.9484163e-02
  -2.9386043e-02
  -2.9289325e-02
  -2.9194591e-02
  -2.9102335e-02
  -2.9012959e-02
  -2.8926774e-02
  -2.8843999e-02
  -2.8764763e-02
  -2.8689103e-02
  -2.8616966e-02
  -2.8548206e-02
  -2.8482588e-02
  -2.8419785e-02
  -2.8359378e-02
  -2.8300858e-02
  -2.8243625e-02
  -2.8186986e-02
  -2.8130159e-02
  -2.8072270e-02
  -2.8012355e-02
  -2.7949356e-02
  -2.7882127e-02
  -2.7809430e-02
  -2.7729933e-02
  -2.7642218e-02
  -2.7539927e-02
  -2.7407562e-02
  -2.7245489e-02
  -2.7048987e-02
  -2.6806461e-02
  -2.6499442e-02
  -2.6102586e-02
  -2.5583674e-02
  -2.4903615e-02
  -2.4016442e-02
  -2.2869314e-02
  -2.1402516e-02
  -1.9549458e-02
  -1.7236943e-02
  -1.4434302e-02
  -1.1031666e-02
  -6.8727282e-03
  -1.8256054e-03
   4.2171643e-03
   1.1338621e-02
   1.9597382e-02
   2.9027643e-02
   3.9639177e-02
   5.1417336e-02
   6.4323049e-02
   7.8292824e-02
   9.3238745e-02
   1.0910568e-01
   1.2594624e-01
   1.4327297e-01
   1.6056445e-01
   1.7734667e-01
   1.9319301e-01
   2.0772426e-01
   2.2060859e-01
   2.3156159e-01
   2.4034625e-01
   2.4677297e-01
   2.5069951e-01
   2.5203109e-01
   2.5072028e-01
   2.4676708e-01
   2.4021888e-01
   2.3117047e-01
   2.1976406e-01
   2.0619570e-01
   1.9086156e-01
   1.7424014e-01
   1.5676987e-01
   1.3884837e-01
   1.2083249e-01
   1.0303824e-01
   8.5740868e-02
   6.9174812e-02
   5.3533714e-02
   3.8970420e-02
   2.5596980e-02
   1.3484644e-02
   2.6638685e-03
  -6.8756881e-03
  -1.5258498e-02
  -2.2593027e-02
  -2.8804721e-02
  -3.3939886e-02
  -3.8173844e-02
  -4.1810940e-02
  -4.5284538e-02
  -4.9157022e-02
  -5.4119799e-02
  -6.0993291e-02
  -7.0669274e-02
  -8.4156508e-02
  -1.0258449e-01
  -1.2585786e-01
  -1.5252793e-01
  -1.7979266e-01
  -2.0349668e-01
  -2.1862485e-01
  -2.1864003e-01
  -1.9663032e-01
  -1.4731706e-01
  -6.7070431e-02
   4.6090526e-02
   1.9259701e-01
   3.6906018e-01
   5.5983860e-01
   7.4648150e-01
   9.0994173e-01
   1.0305758e+00
   1.0881438e+00
   1.0686877e+00
   9.7558061e-01
   8.2085101e-01
   6.2583255e-01
   4.1763206e-01
   2.1709742e-01
   4.0588332e-02
  -1.0163766e-01
  -2.0509322e-01
  -2.6976181e-01
  -2.9930173e-01
  -2.9907803e-01
  -2.7606547e-01
  -2.3884845e-01
  -1.9633550e-01
  -1.5472568e-01
  -1.1835577e-01
  -8.9631814e-02
  -6.9029025e-02
  -5.5136789e-02
  -4.6129507e-02
  -4.0528610e-02
  -3.7021983e-02
  -3.4605109e-02
  -3.2581067e-02
  -3.0560536e-02
  -2.8439842e-02
  -2.6091316e-02
  -2.3429325e-02
  -2.0403763e-02
  -1.6966631e-02
  -1.3072036e-02
  -8.6761885e-03
  -3.7374067e-03
   1.7838867e-03
   7.9251252e-03
   1.4707303e-02
   2.2165570e-02
   3.0343829e-02
   3.9274565e-02
   4.8978845e-02
   5.9466323e-02
   7.0735233e-02
   8.2772393e-02
   9.5553206e-02
   1.0904166e-01
   1.2319032e-01
   1.3794033e-01
   1.5322145e-01
   1.6895197e-01
   1.8503882e-01
   2.0139371e-01
   2.1791976e-01
   2.3445025e-01
   2.5081999e-01
   2.6686875e-01
   2.8244124e-01
   2.9738714e-01
   3.1156109e-01
   3.2482268e-01
   3.3703645e-01
   3.4807193e-01
   3.5780358e-01
   3.6611081e-01
   3.7287800e-01
   3.7799450e-01
   3.8135412e-01
   3.8288357e-01
   3.8258444e-01
   3.8047816e-01
   3.7659848e-01
   3.7099147e-01
   3.6371555e-01
   3.5484143e-01
   3.4445217e-01
   3.3264313e-01
   3.1952204e-01
   3.0520889e-01
   2.8983606e-01
   2.7354820e-01
   2.5650231e-01
   2.3886773e-01
   2.2082609e-01
   2.0257136e-01
   1.8430536e-01
   1.6613288e-01
   1.4816109e-01
   1.3051382e-01
   1.1330225e-01
   9.6624833e-02
   8.0567310e-02
   6.5202736e-02
   5.0591459e-02
   3.6781125e-02
   2.3806677e-02
   1.1690358e-02
   4.4170762e-04
  -9.9424367e-03
  -1.9477939e-02
  -2.8193366e-02
  -3.6125191e-02
  -4.3281335e-02
  -4.9702840e-02
  -5.5439315e-02
  -6.0538800e-02
  -6.5047766e-02
  -6.9011114e-02
  -7.2472176e-02
  -7.5472716e-02
  -7.8052926e-02
  -8.0251431e-02
  -8.2105286e-02
  -8.3649977e-02
  -8.4919418e-02
  -8.5945958e-02
  -8.6760375e-02
  -8.7391875e-02
  -8.7868099e-02
  -8.8205855e-02
  -8.8375474e-02
  -8.8394922e-02
  -8.8289706e-02
  -8.8083241e-02
  -8.7796854e-02
  -8.7449780e-02
  -8.7059166e-02
  -8.6640068e-02
  -8.6205453e-02
  -8.5766197e-02
  -8.5331087e-02
  -8.4906821e-02
  -8.4498005e-02
  -8.4107158e-02
  -8.3734705e-02
  -8.3378985e-02
  -8.3036246e-02
  -8.2700646e-02
  -8.2364252e-02
  -8.2017044e-02
  -8.1649613e-02
  -8.1267903e-02
  -8.0877152e-02
  -8.0481243e-02
  -8.0083547e-02
  -7.9686920e-02
  -7.9293707e-02
  -7.8905740e-02
  -7.8524335e-02
  -7.8150299e-02
  -7.7783924e-02
  -7.7424987e-02
  -7.7072756e-02
  -7.6725984e-02
  -7.6382909e-02
  -7.6041259e-02
  -7.5698247e-02
  -7.5350575e-02
  -7.4994430e-02
  -7.4625486e-02
  -7.4238905e-02
  -7.3829336e-02
  -7.3390914e-02
  -7.2917261e-02
  -7.2401486e-02
  -7.1836187e-02
  -7.1213446e-02
  -7.0524228e-02
  -6.9739230e-02
  -6.8817831e-02
  -6.7715706e-02
  -6.6380997e-02
  -6.4754314e-02
  -6.2768733e-02
  -6.0349800e-02
  -5.7415524e-02
  -5.3876386e-02
  -4.9635331e-02
  -4.4587773e-02
  -3.8621593e-02
  -3.1617139e-02
  -2.3496344e-02
  -1.4201717e-02
  -3.6618286e-03
   8.1460027e-03
   2.1195612e-02
   3.5411986e-02
   5.0671264e-02
   6.6800734e-02
   8.3578839e-02
   1.0073517e-01
   1.1795048e-01
   1.3485665e-01
   1.5103674e-01
   1.6607468e-01
   1.7963825e-01
   1.9129905e-01
   2.0069694e-01
   2.0755257e-01
   2.1166745e-01
   2.1292387e-01
   2.1128497e-01
   2.0679471e-01
   1.9957786e-01
   1.8984001e-01
   1.7785310e-01
   1.6388005e-01
   1.4837429e-01
   1.3179529e-01
   1.1456448e-01
   9.7065326e-02
   7.9643252e-02
   6.2605692e-02
   4.6222074e-02
   3.0723819e-02
   1.6304339e-02
   3.1190444e-03
  -8.7730784e-03
  -1.9497709e-02
  -2.8913011e-02
  -3.6930574e-02
  -4.3557106e-02
  -4.8894429e-02
  -5.3139479e-02
  -5.6584307e-02
  -5.9616080e-02
  -6.2717079e-02
  -6.6464701e-02
  -7.1531456e-02
  -7.8684920e-02
  -8.8817244e-02
  -1.0347502e-01
  -1.2338274e-01
  -1.4783084e-01
  -1.7467572e-01
  -2.0033970e-01
  -2.2005823e-01
  -2.2733005e-01
  -2.1478428e-01
  -1.7640140e-01
  -1.0757194e-01
  -5.0964688e-03
   1.3295124e-01
   3.0305989e-01
   4.9120740e-01
   6.8016408e-01
   8.5024269e-01
   9.7929846e-01
   1.0430773e+00
   1.0294136e+00
   9.4397853e-01
   7.9830100e-01
   6.0955607e-01
   4.0056480e-01
   1.9655667e-01
   1.1823547e-02
  -1.4301030e-01
  -2.6168877e-01
  -3.4256700e-01
  -3.8701941e-01
  -4.0000000e-01
  -3.8838978e-01
  -3.5904938e-01
  -3.1881905e-01
  -2.7451865e-01
  -2.3287925e-01
  -1.9790244e-01
  -1.7003591e-01
  -1.4908748e-01
  -1.3438580e-01
  -1.2478034e-01
  -1.1864141e-01
  -1.1418461e-01
  -1.1073796e-01
  -1.0784245e-01
  -1.0512514e-01
  -1.0231265e-01
  -9.9231116e-02
  -9.5806213e-02
  -9.2057594e-02
  -8.7951014e-02
  -8.3423508e-02
  -7.8433549e-02
  -7.2941803e-02
  -6.6911130e-02
  -6.0306583e-02
  -5.3095409e-02
  -4.5247049e-02
  -3.6733137e-02
  -2.7527501e-02
  -1.7606163e-02
  -6.9583648e-03
   4.4190395e-03
   1.6530165e-02
   2.9367969e-02
   4.2914244e-02
   5.7139618e-02
   7.2003554e-02
   8.7454351e-02
   1.0342914e-01
   1.1985390e-01
   1.3664342e-01
   1.5370136e-01
   1.7092018e-01
   1.8818119e-01
   2.0535455e-01
   2.2229923e-01
   2.3889273e-01
   2.5502792e-01
   2.7052754e-01
   2.8522507e-01
   2.9896777e-01
   3.1161658e-01
   3.2304616e-01
   3.3314491e-01
   3.4181493e-01
   3.4897205e-01
   3.5454581e-01
   3.5847946e-01
   3.6072999e-01
   3.6126809e-01
   3.6007819e-01
   3.5715841e-01
   3.5248038e-01
   3.4594163e-01
   3.3768742e-01
   3.2788629e-01
   3.1670160e-01
   3.0429160e-01
   2.9080938e-01
   2.7640288e-01
   2.6121488e-01
   2.4538303e-01
   2.2903981e-01
   2.1231258e-01
   1.9532352e-01
   1.7818969e-01
   1.6102298e-01
   1.4393013e-01
   1.2701275e-01
   1.1036730e-01
   9.4085063e-02
   7.8252205e-02
   6.2949726e-02
   4.8253485e-02
   3.4234188e-02
   2.0957394e-02
   8.4835135e-03
  -3.1321931e-03
  -1.3850785e-02
  -2.3697886e-02
  -3.2711481e-02
  -4.0928580e-02
  -4.8385941e-02
  -5.5120070e-02
  -6.1167223e-02
  -6.6563403e-02
  -7.1344363e-02
  -7.5545603e-02
  -7.9202373e-02
  -8.2349672e-02
  -8.5022245e-02
  -8.7254589e-02
  -8.9080947e-02
  -9.0535311e-02
  -9.1651424e-02
  -9.2462773e-02
  -9.3002599e-02
  -9.3303887e-02
  -9.3399374e-02
  -9.3321543e-02
  -9.3102627e-02
  -9.2771941e-02
  -9.2291977e-02
  -9.1660343e-02
  -9.0902322e-02
  -9.0041188e-02
  -8.9098219e-02
  -8.8092686e-02
  -8.7041860e-02
  -8.5961010e-02
  -8.4863401e-02
  -8.3760296e-02
  -8.2660957e-02
  -8.1572643e-02
  -8.0500610e-02
  -7.9448112e-02
  -7.8416401e-02
  -7.7404727e-02
  -7.6410336e-02
  -7.5428473e-02
  -7.4452380e-02
  -7.3473299e-02
  -7.2480552e-02
  -7.1475208e-02
  -7.0465162e-02
  -6.9453076e-02
  -6.8441287e-02
  -6.7431810e-02
  -6.6426340e-02
  -6.5426247e-02
  -6.4432578e-02
  -6.3446060e-02
  -6.2467096e-02
  -6.1495766e-02
  -6.0531829e-02
  -5.9574720e-02
  -5.8623552e-02
  -5.7677117e-02
  -5.6733882e-02
  -5.5791993e-02
  -5.4849272e-02
  -5.3903222e-02
  -5.2951019e-02
  -5.1989520e-02
  -5.1015258e-02
  -5.0024444e-02
  -4.9012964e-02
  -4.7976387e-02
  -4.6909953e-02
  -4.5808585e-02
  -4.4665485e-02
  -4.3453794e-02
  -4.2150192e-02
  -4.0728847e-02
  -3.9155974e-02
  -3.7389835e-02
  -3.5380739e-02
  -3.3071039e-02
  -3.0395138e-02
  -2.7279481e-02
  -2.3642564e-02
  -1.9394927e-02
  -1.4439157e-02
  -8.6698878e-03
  -2.0247709e-03
   5.5800566e-03
   1.4273810e-02
   2.4144679e-02
   3.5239706e-02
   4.7564786e-02
   6.1084665e-02
   7.5722942e-02
   9.1362068e-02
   1.0784335e-01
   1.2496693e-01
   1.4249183e-01
   1.6013590e-01
   1.7760538e-01
   1.9461044e-01
   2.1069004e-01
   2.2541956e-01
   2.3843081e-01
   2.4941200e-01
   2.5810783e-01
   2.6431938e-01
   2.6790419e-01
   2.6877622e-01
   2.6690586e-01
   2.6231996e-01
   2.5507630e-01
   2.4524032e-01
   2.3322154e-01
   2.1945524e-01
   2.0434917e-01
   1.8828354e-01
   1.7161105e-01
   1.5465688e-01
   1.3771868e-01
   1.2106658e-01
   1.0494318e-01
   8.9563557e-02
   7.5115281e-02
   6.1758380e-02
   4.9625366e-02
   3.8819271e-02
   2.9274775e-02
   2.0963939e-02
   1.3895639e-02
   8.0151718e-03
   3.2042568e-03
  -7.1896528e-04
  -3.9999318e-03
  -6.9476585e-03
  -9.9347397e-03
  -1.3397348e-02
  -1.7593250e-02
  -2.3741193e-02
  -3.3709606e-02
  -4.8481164e-02
  -6.8135028e-02
  -9.1846848e-02
  -1.1788876e-01
  -1.4362940e-01
  -1.6527542e-01
  -1.7661141e-01
  -1.7118816e-01
  -1.4336176e-01
  -8.8295060e-02
  -1.9576394e-03
   1.1851896e-01
   2.7136903e-01
   4.4934104e-01
   6.4054715e-01
   8.2847029e-01
   9.9196415e-01
   1.1059745e+00
   1.1530801e+00
   1.1280615e+00
   1.0336820e+00
   8.8062394e-01
   6.8748919e-01
   4.7988922e-01
   2.7782620e-01
   9.5208891e-02
  -5.7715226e-02
  -1.7488912e-01
  -2.5444620e-01
  -2.9866719e-01
  -3.1129063e-01
  -2.9909342e-01
  -2.6984380e-01
  -2.3046899e-01
  -1.8705519e-01
  -1.4484764e-01
  -1.0824533e-01
  -7.9596594e-02
  -5.8102941e-02
  -4.2580453e-02
  -3.1842979e-02
  -2.4702143e-02
  -1.9967333e-02
  -1.6450022e-02
  -1.3374852e-02
  -1.0508826e-02
  -7.6529355e-03
  -4.6483405e-03
  -1.3763669e-03
   2.2414928e-03
   6.2435802e-03
   1.0630738e-02
   1.5435059e-02
   2.0707960e-02
   2.6490266e-02
   3.2819405e-02
   3.9729414e-02
   4.7250934e-02
   5.5411212e-02
   6.4234102e-02
   7.3740063e-02
   8.3946161e-02
   9.4866067e-02
   1.0651120e-01
   1.1888717e-01
   1.3197347e-01
   1.4573891e-01
   1.6014400e-01
   1.7514089e-01
   1.9067342e-01
   2.0667709e-01
   2.2307908e-01
   2.3979822e-01
   2.5674502e-01
   2.7382167e-01
   2.9092202e-01
   3.0793157e-01
   3.2472751e-01
   3.4117870e-01
   3.5714567e-01
   3.7248061e-01
   3.8702737e-01
   4.0062150e-01
   4.1313081e-01
   4.2448540e-01
   4.3455648e-01
   4.4322974e-01
   4.5040832e-01
   4.5601287e-01
   4.5998144e-01
   4.6226961e-01
   4.6285037e-01
   4.6171421e-01
   4.5886906e-01
   4.5434035e-01
   4.4817093e-01
   4.4042115e-01
   4.3116881e-01
   4.2050917e-01
   4.0855496e-01
   3.9543538e-01
   3.8122950e-01
   3.6606454e-01
   3.5010855e-01
   3.3352158e-01
   3.1645573e-01
   2.9905514e-01
   2.8145599e-01
   2.6378647e-01
   2.4616685e-01
   2.2870940e-01
   2.1151845e-01
   1.9469036e-01
   1.7831351e-01
   1.6246836e-01
   1.4722735e-01
   1.3265501e-01
   1.1880787e-01
   1.0573633e-01
   9.3492757e-02
   8.2074495e-02
   7.1464383e-02
   6.1643675e-02
   5.2592037e-02
   4.4287546e-02
   3.6706693e-02
   2.9824379e-02
   2.3613918e-02
   1.8047038e-02
   1.3093876e-02
   8.7229830e-03
   4.9013215e-03
   1.5942663e-03
  -1.2343959e-03
  -3.6224661e-03
  -5.6093334e-03
  -7.2359746e-03
  -8.5449545e-03
  -9.5804258e-03
  -1.0388129e-02
  -1.1009853e-02
  -1.1460042e-02
  -1.1749404e-02
  -1.1889205e-02
  -1.1890837e-02
  -1.1765816e-02
  -1.1525787e-02
  -1.1182522e-02
  -1.0747917e-02
  -1.0233997e-02
  -9.6529118e-03
  -9.0169386e-03
  -8.3384808e-03
  -7.6300684e-03
  -6.9043580e-03
  -6.1741325e-03
  -5.4523013e-03
  -4.7516516e-03
  -4.0649719e-03
  -3.3831685e-03
  -2.7062421e-03
  -2.0341917e-03
  -1.3670149e-03
  -7.0470799e-04
  -4.7265478e-05
   6.0531941e-04
   1.2530550e-03
   1.8959510e-03
   2.5340187e-03
   3.1672708e-03
   3.7957217e-03
   4.4193868e-03
   5.0382835e-03
   5.6524304e-03
   6.2618475e-03
   6.8665566e-03
   7.4665806e-03
   8.0619443e-03
   8.6537764e-03
   9.2464458e-03
   9.8371918e-03
   1.0423153e-02
   1.1002468e-02
   1.1574282e-02
   1.2138736e-02
   1.2696979e-02
   1.3251159e-02
   1.3804427e-02
   1.4360935e-02
   1.4925838e-02
   1.5505295e-02
   1.6106463e-02
   1.6737504e-02
   1.7407583e-02
   1.8126863e-02
   1.8906313e-02
   1.9743855e-02
   2.0670140e-02
   2.1737895e-02
   2.3002657e-02
   2.4522772e-02
   2.6359394e-02
   2.8576487e-02
   3.1240825e-02
   3.4421989e-02
   3.8192369e-02
   4.2627166e-02
   4.7804389e-02
   5.3804855e-02
   6.0712192e-02
   6.8612834e-02
   7.7596028e-02
   8.7753826e-02
   9.9169606e-02
   1.1181747e-01
   1.2559407e-01
   1.4036958e-01
   1.5598812e-01
   1.7226780e-01
   1.8900066e-01
   2.0595274e-01
   2.2286402e-01
   2.3944844e-01
   2.5539391e-01
   2.7036230e-01
   2.8398945e-01
   2.9588514e-01
   3.0563429e-01
   3.1296107e-01
   3.1774660e-01
   3.1988987e-01
   3.1934611e-01
   3.1612673e-01
   3.1029943e-01
   3.0198809e-01
   2.9137284e-01
   2.7869002e-01
   2.6423222e-01
   2.4834824e-01
   2.3144312e-01
   2.1396680e-01
   1.9622652e-01
   1.7852835e-01
   1.6117475e-01
   1.4442585e-01
   1.2849944e-01
   1.1357097e-01
   9.9773538e-02
   8.7197920e-02
   7.5892542e-02
   6.5863493e-02
   5.7074522e-02
   4.9447039e-02
   4.2790052e-02
   3.7065396e-02
   3.2289542e-02
   2.8336707e-02
   2.4938860e-02
   2.1685714e-02
   1.8024733e-02
   1.3261126e-02
   6.5578506e-03
  -3.0643879e-03
  -1.6545471e-02
  -3.4628009e-02
  -5.7387107e-02
  -8.3593987e-02
  -1.1070798e-01
  -1.3487651e-01
  -1.5120607e-01
  -1.5386382e-01
  -1.3643594e-01
  -9.3700842e-02
  -2.1696946e-02
   8.2277305e-02
   2.1964571e-01
   3.8678954e-01
   5.7283959e-01
   7.6353293e-01
   9.4144602e-01
   1.0859947e+00
   1.1756045e+00
   1.2000000e+00
   1.1450630e+00
   1.0102347e+00
   8.1196106e-01
   5.8369298e-01
   3.7094699e-01
   1.8038135e-01
   1.8093605e-02
  -1.0840968e-01
  -1.9591167e-01
  -2.4548524e-01
  -2.6182575e-01
  -2.5105396e-01
  -2.2205150e-01
  -1.8280773e-01
  -1.4007580e-01
  -9.9372639e-02
  -6.4974672e-02
  -3.8885847e-02
  -2.0038909e-02
  -7.0297923e-03
   1.4888572e-03
   6.8076851e-03
   1.0160627e-02
   1.2689268e-02
   1.4943048e-02
   1.7124419e-02
   1.9409243e-02
   2.1934305e-02
   2.4797319e-02
   2.8056923e-02
   3.1732682e-02
   3.5839474e-02
   4.0434848e-02
   4.5564474e-02
   5.1269971e-02
   5.7588948e-02
   6.4555009e-02
   7.2197745e-02
   8.0542745e-02
   8.9611586e-02
   9.9421839e-02
   1.0998707e-01
   1.2131632e-01
   1.3340051e-01
   1.4621382e-01
   1.5972016e-01
   1.7387316e-01
   1.8861622e-01
   2.0388247e-01
   2.1959479e-01
   2.3566580e-01
   2.5199787e-01
   2.6848310e-01
   2.8500336e-01
   3.0143024e-01
   3.1762508e-01
   3.3343897e-01
   3.4871274e-01
   3.6327697e-01
   3.7695258e-01
   3.8962821e-01
   4.0118183e-01
   4.1145961e-01
   4.2032760e-01
   4.2767177e-01
   4.3339800e-01
   4.3743206e-01
   4.3971965e-01
   4.4022637e-01
   4.3893771e-01
   4.3585909e-01
   4.3101584e-01
   4.2445317e-01
   4.1623623e-01
   4.0645005e-01
   3.9519958e-01
   3.8259499e-01
   3.6870588e-01
   3.5370244e-01
   3.3776414e-01
   3.2106271e-01
   3.0376216e-01
   2.8601878e-01
   2.6798116e-01
   2.4979014e-01
   2.3157885e-01
   2.1347271e-01
   1.9558941e-01
   1.7803892e-01
   1.6092348e-01
   1.4433764e-01
   1.2836819e-01
   1.1309424e-01
   9.8587133e-02
   8.4913495e-02
   7.2094005e-02
   6.0119131e-02
   4.8976624e-02
   3.8651559e-02
   2.9126328e-02
   2.0380649e-02
   1.2391558e-02
   5.1334133e-03
  -1.4221052e-03
  -7.3059966e-03
  -1.2551939e-02
  -1.7196288e-02
  -2.1278079e-02
  -2.4839027e-02
  -2.7923524e-02
  -3.0578640e-02
  -3.2854127e-02
  -3.4802412e-02
  -3.6478590e-02
  -3.7925613e-02
  -3.9158872e-02
  -4.0192579e-02
  -4.1041101e-02
  -4.1718958e-02
  -4.2240825e-02
  -4.2621529e-02
  -4.2876054e-02
  -4.3019537e-02
  -4.3067267e-02
  -4.3034690e-02
  -4.2937406e-02
  -4.2791167e-02
  -4.2611881e-02
  -4.2415610e-02
  -4.2218568e-02
  -4.2037125e-02
  -4.1878838e-02
  -4.1724758e-02
  -4.1573187e-02
  -4.1424109e-02
  -4.1277509e-02
  -4.1133367e-02
  -4.0991663e-02
  -4.0852376e-02
  -4.0715483e-02
  -4.0580958e-02
  -4.0448775e-02
  -4.0318906e-02
  -4.0191322e-02
  -4.0065990e-02
  -3.9942878e-02
  -3.9821951e-02
  -3.9703173e-02
  -3.9586506e-02
  -3.9471912e-02
  -3.9359348e-02
  -3.9248770e-02
  -3.9132592e-02
  -3.9008895e-02
  -3.8884166e-02
  -3.8763209e-02
  -3.8649139e-02
  -3.8543384e-02
  -3.8445688e-02
  -3.8354107e-02
  -3.8265014e-02
  -3.8173091e-02
  -3.8071338e-02
  -3.7951066e-02
  -3.7801902e-02
  -3.7611784e-02
  -3.7366967e-02
  -3.7052018e-02
  -3.6649818e-02
  -3.6141561e-02
  -3.5525509e-02
  -3.4863817e-02
  -3.4045897e-02
  -3.2940380e-02
  -3.1425404e-02
  -2.9388615e-02
  -2.6727168e-02
  -2.3347729e-02
  -1.9166468e-02
  -1.4109067e-02
  -8.1107163e-03
  -1.1161137e-03
   6.9205340e-03
   1.6035511e-02
   2.6255594e-02
   3.7598050e-02
   5.0070637e-02
   6.3671606e-02
   7.8389699e-02
   9.4128407e-02
   1.1056383e-01
   1.2735096e-01
   1.4414456e-01
   1.6059892e-01
   1.7636790e-01
   1.9110488e-01
   2.0446279e-01
   2.1609410e-01
   2.2565085e-01
   2.3278459e-01
   2.3718808e-01
   2.3876152e-01
   2.3749383e-01
   2.3343055e-01
   2.2667480e-01
   2.1738728e-01
   2.0578630e-01
   1.9214773e-01
   1.7680502e-01
   1.6014923e-01
   1.4262899e-01
   1.2470550e-01
   1.0669529e-01
   8.8941142e-02
   7.1745673e-02
   5.5361859e-02
   3.9993009e-02
   2.5792773e-02
   1.2865140e-02
   1.2644390e-03
  -9.0046614e-03
  -1.7987154e-02
  -2.5849594e-02
  -3.2689867e-02
  -3.8431778e-02
  -4.3144029e-02
  -4.7046248e-02
  -5.0508998e-02
  -5.4053769e-02
  -5.8352984e-02
  -6.4229996e-02
  -7.2659089e-02
  -8.4688758e-02
  -1.0124309e-01
  -1.2283098e-01
  -1.4853831e-01
  -1.7595326e-01
  -2.0116633e-01
  -2.1887733e-01
  -2.2315538e-01
  -2.0663429e-01
  -1.6325142e-01
  -8.8793506e-02
   1.9103318e-02
   1.6099247e-01
   3.3451210e-01
   5.2465417e-01
   7.1236693e-01
   8.7792697e-01
   1.0009392e+00
   1.0603369e+00
   1.0402955e+00
   9.4753985e-01
   7.9681299e-01
   6.0629519e-01
   3.9760420e-01
   1.9533485e-01
   1.6840797e-02
  -1.2915609e-01
  -2.3754775e-01
  -3.0713028e-01
  -3.4060394e-01
  -3.4333999e-01
  -3.2272110e-01
  -2.8783015e-01
  -2.4629786e-01
  -2.0425619e-01
  -1.6633836e-01
  -1.3568030e-01
  -1.1332814e-01
  -9.7772044e-02
  -8.7332575e-02
  -8.0556647e-02
  -7.6217524e-02
  -7.3314819e-02
  -7.1074497e-02
  -6.8957443e-02
  -6.6735321e-02
  -6.4325125e-02
  -6.1653416e-02
  -5.8653578e-02
  -5.5265822e-02
  -5.1437184e-02
  -4.7121526e-02
  -4.2279536e-02
  -3.6878726e-02
  -3.0895054e-02
  -2.4305373e-02
  -1.7059711e-02
  -9.1140873e-03
  -4.3494751e-04
   9.0008401e-03
   1.9205983e-02
   3.0182763e-02
   4.1923039e-02
   5.4408245e-02
   6.7609390e-02
   8.1487061e-02
   9.5991419e-02
   1.1106220e-01
   1.2662872e-01
   1.4260986e-01
   1.5892662e-01
   1.7549722e-01
   1.9216637e-01
   2.0877700e-01
   2.2517571e-01
   2.4121280e-01
   2.5674228e-01
   2.7162183e-01
   2.8571286e-01
   2.9888044e-01
   3.1099336e-01
   3.2192409e-01
   3.3154881e-01
   3.3974739e-01
   3.4640338e-01
   3.5140404e-01
   3.5464920e-01
   3.5610388e-01
   3.5576915e-01
   3.5365934e-01
   3.4980197e-01
   3.4423772e-01
   3.3702046e-01
   3.2821726e-01
   3.1790834e-01
   3.0618714e-01
   2.9316027e-01
   2.7894750e-01
   2.6368181e-01
   2.4750935e-01
   2.3058947e-01
   2.1309468e-01
   1.9521069e-01
   1.7713608e-01
   1.5900112e-01
   1.4091036e-01
   1.2300028e-01
   1.0539472e-01
   8.8204910e-02
   7.1529444e-02
   5.5454305e-02
   4.0052853e-02
   2.5385825e-02
   1.1501335e-02
  -1.5651233e-03
  -1.3790679e-02
  -2.5165081e-02
  -3.5690704e-02
  -4.5382540e-02
  -5.4261906e-02
  -6.2324093e-02
  -6.9608303e-02
  -7.6162110e-02
  -8.2031823e-02
  -8.7262481e-02
  -9.1897858e-02
  -9.5980461e-02
  -9.9551527e-02
  -1.0265103e-01
  -1.0531767e-01
  -1.0758889e-01
  -1.0950085e-01
  -1.1108847e-01
  -1.1238536e-01
  -1.1342391e-01
  -1.1423522e-01
  -1.1484911e-01
  -1.1529415e-01
  -1.1559764e-01
  -1.1578036e-01
  -1.1581718e-01
  -1.1571911e-01
  -1.1550793e-01
  -1.1520371e-01
  -1.1482484e-01
  -1.1438801e-01
  -1.1390824e-01
  -1.1339884e-01
  -1.1287147e-01
  -1.1233605e-01
  -1.1180085e-01
  -1.1127244e-01
  -1.1075571e-01
  -1.1025384e-01
  -1.0976834e-01
  -1.0929903e-01
  -1.0884405e-01
  -1.0839983e-01
  -1.0796112e-01
  -1.0752099e-01
  -1.0707082e-01
  -1.0660087e-01
  -1.0611007e-01
  -1.0560514e-01
  -1.0509224e-01
  -1.0457677e-01
  -1.0406335e-01
  -1.0355580e-01
  -1.0305718e-01
  -1.0256974e-01
  -1.0209498e-01
  -1.0163359e-01
  -1.0118549e-01
  -1.0074983e-01
  -1.0032494e-01
  -9.9908407e-02
  -9.9497018e-02
  -9.9086779e-02
  -9.8672915e-02
  -9.8249867e-02
  -9.7811295e-02
  -9.7350076e-02
  -9.6858306e-02
  -9.6327297e-02
  -9.5747579e-02
  -9.5108899e-02
  -9.4400224e-02
  -9.3609736e-02
  -9.2724835e-02
  -9.1732100e-02
  -9.0603477e-02
  -8.9275874e-02
  -8.7678361e-02
  -8.5736902e-02
  -8.3374347e-02
  -8.0510440e-02
  -7.7061814e-02
  -7.2941994e-02
  -6.8061394e-02
  -6.2327320e-02
  -5.5643969e-02
  -4.7912426e-02
  -3.9030670e-02
  -2.8901554e-02
  -1.7503604e-02
  -4.8702671e-03
   8.9274591e-03
   2.3779364e-02
   3.9536025e-02
   5.6008807e-02
   7.2969863e-02
   9.0152133e-02
   1.0724935e-01
   1.2391602e-01
   1.3976745e-01
   1.5437974e-01
   1.6728976e-01
   1.7813127e-01
   1.8666314e-01
   1.9263082e-01
   1.9585828e-01
   1.9624806e-01
   1.9378121e-01
   1.8851736e-01
   1.8059465e-01
   1.7022979e-01
   1.5771801e-01
   1.4343311e-01
   1.2774787e-01
   1.1103300e-01
   9.3724829e-02
   7.6216280e-02
   5.8856334e-02
   4.1950020e-02
   2.5758417e-02
   1.0498650e-02
  -3.6561067e-03
  -1.6576628e-02
  -2.8292909e-02
  -3.8921416e-02
  -4.8258472e-02
  -5.6186788e-02
  -6.2692631e-02
  -6.7865816e-02
  -7.1899711e-02
  -7.5091238e-02
  -7.7840866e-02
  -8.0652620e-02
  -8.4134074e-02
  -8.8996354e-02
  -9.6054139e-02
  -1.0622375e-01
  -1.2047758e-01
  -1.3969583e-01
  -1.6353264e-01
  -1.9014356e-01
  -2.1618553e-01
  -2.3681693e-01
  -2.4623558e-01
  -2.3784706e-01
  -2.0442569e-01
  -1.4087608e-01
  -4.4328580e-02
   8.5860660e-02
   2.4834055e-01
   4.3642603e-01
   6.2931207e-01
   8.0543650e-01
   9.4473304e-01
   1.0286313e+00
   1.0400884e+00
   9.7286221e-01
   8.4169464e-01
   6.6483372e-01
   4.6187050e-01
   2.5373912e-01
   6.1885190e-02
  -1.0148655e-01
  -2.3050276e-01
  -3.2222059e-01
  -3.7695586e-01
  -3.9828303e-01
  -3.9190486e-01
  -3.6518845e-01
  -3.2679100e-01
  -2.8380820e-01
  -2.4173706e-01
  -2.0447591e-01
  -1.7432441e-01
  -1.5200019e-01
  -1.3638386e-01
  -1.2574601e-01
  -1.1860462e-01
  -1.1373375e-01
  -1.1016353e-01
  -1.0718015e-01
  -1.0432589e-01
  -1.0139908e-01
  -9.8358290e-02
  -9.5047872e-02
  -9.1414668e-02
  -8.7414510e-02
  -8.3004913e-02
  -7.8145073e-02
  -7.2795869e-02
  -6.6919862e-02
  -6.0481297e-02
  -5.3446100e-02
  -4.5781878e-02
  -3.7457922e-02
  -2.8445205e-02
  -1.8726271e-02
  -8.2924406e-03
   2.8738061e-03
   1.4779070e-02
   2.7418709e-02
   4.0776839e-02
   5.4826331e-02
   6.9528815e-02
   8.4834678e-02
   1.0068306e-01
   1.1700187e-01
   1.3370775e-01
   1.5070613e-01
   1.6789117e-01
   1.8514581e-01
   2.0234172e-01
   2.1936033e-01
   2.3610368e-01
   2.5239675e-01
   2.6807019e-01
   2.8296635e-01
   2.9693926e-01
   3.0985461e-01
   3.2158981e-01
   3.3203392e-01
   3.4108770e-01
   3.4866359e-01
   3.5468570e-01
   3.5908984e-01
   3.6182348e-01
   3.6284580e-01
   3.6212765e-01
   3.5962478e-01
   3.5521638e-01
   3.4901428e-01
   3.4116455e-01
   3.3181055e-01
   3.2109296e-01
   3.0914975e-01
   2.9611621e-01
   2.8212492e-01
   2.6730577e-01
   2.5178595e-01
   2.3568995e-01
   2.1913958e-01
   2.0225393e-01
   1.8514941e-01
   1.6793973e-01
   1.5073590e-01
   1.3364623e-01
   1.1677635e-01
   1.0022918e-01
   8.4104936e-02
   6.8501157e-02
   5.3512673e-02
   3.9231619e-02
   2.5747436e-02
   1.3142099e-02
   1.4078044e-03
  -9.4847222e-03
  -1.9554473e-02
  -2.8822108e-02
  -3.7309958e-02
  -4.5042022e-02
  -5.2043968e-02
  -5.8343132e-02
  -6.3968519e-02
  -6.8950806e-02
  -7.3322334e-02
  -7.7117116e-02
  -8.0370834e-02
  -8.3120837e-02
  -8.5406145e-02
  -8.7267446e-02
  -8.8747096e-02
  -8.9889121e-02
  -9.0739217e-02
  -9.1344745e-02
  -9.1746333e-02
  -9.1958937e-02
  -9.1997747e-02
  -9.1877694e-02
  -9.1613231e-02
  -9.1218341e-02
  -9.0706534e-02
  -9.0090843e-02
  -8.9383832e-02
  -8.8597588e-02
  -8.7743727e-02
  -8.6833391e-02
  -8.5877249e-02
  -8.4885495e-02
  -8.3867850e-02
  -8.2833565e-02
  -8.1791412e-02
  -8.0749695e-02
  -7.9716242e-02
  -7.8696747e-02
  -7.7681574e-02
  -7.6667993e-02
  -7.5656197e-02
  -7.4646356e-02
  -7.3638614e-02
  -7.2633093e-02
  -7.1629886e-02
  -7.0629067e-02
  -6.9630680e-02
  -6.8634747e-02
  -6.7641266e-02
  -6.6650209e-02
  -6.5661524e-02
  -6.4675133e-02
  -6.3690936e-02
  -6.2708807e-02
  -6.1728593e-02
  -6.0750121e-02
  -5.9773190e-02
  -5.8797576e-02
  -5.7823029e-02
  -5.6849276e-02
  -5.5876017e-02
  -5.4902930e-02
  -5.3929667e-02
  -5.2955853e-02
  -5.1970706e-02
  -5.0971138e-02
  -4.9963927e-02
  -4.8951291e-02
  -4.7930879e-02
  -4.6895777e-02
  -4.5834508e-02
  -4.4731027e-02
  -4.3564725e-02
  -4.2310430e-02
  -4.0938403e-02
  -3.9414341e-02
  -3.7699376e-02
  -3.5750076e-02
  -3.3518442e-02
  -3.0982258e-02
  -2.8106761e-02
  -2.4741200e-02
  -2.0746625e-02
  -1.6000933e-02
  -1.0398875e-02
  -3.8520458e-03
   3.7111063e-03
   1.2345286e-02
   2.2088347e-02
   3.2961295e-02
   4.4968287e-02
   5.8096628e-02
   7.2316777e-02
   8.7582342e-02
   1.0382917e-01
   1.2088103e-01
   1.3841117e-01
   1.5608428e-01
   1.7356755e-01
   1.9053065e-01
   2.0664577e-01
   2.2158762e-01
   2.3503338e-01
   2.4666275e-01
   2.5615793e-01
   2.6320362e-01
   2.6752625e-01
   2.6905886e-01
   2.6782515e-01
   2.6389630e-01
   2.5739151e-01
   2.4847803e-01
   2.3737113e-01
   2.2433415e-01
   2.0967844e-01
   1.9376340e-01
   1.7699646e-01
   1.5983149e-01
   1.4262308e-01
   1.2565334e-01
   1.0920661e-01
   9.3523174e-02
   7.8799208e-02
   6.5186828e-02
   5.2794070e-02
   4.1684890e-02
   3.1879167e-02
   2.3352703e-02
   1.6037223e-02
   9.7956501e-03
   4.5053203e-03
   1.7589569e-04
  -3.3114033e-03
  -6.2200042e-03
  -8.9579828e-03
  -1.2078063e-02
  -1.6277617e-02
  -2.2398664e-02
  -3.1283279e-02
  -4.4039855e-02
  -6.1767699e-02
  -8.4309219e-02
  -1.1020918e-01
  -1.3671471e-01
  -1.5977529e-01
  -1.7449622e-01
  -1.7475565e-01
  -1.5333622e-01
  -1.0479450e-01
  -2.5557704e-02
   8.6076424e-02
   2.2993954e-01
   4.0396301e-01
   5.9597795e-01
   7.8579573e-01
   9.5375011e-01
   1.0808896e+00
   1.1489774e+00
   1.1416273e+00
   1.0598333e+00
   9.1872836e-01
   7.3580980e-01
   5.3064067e-01
   3.2484979e-01
   1.3942107e-01
  -1.5727928e-02
  -1.3500416e-01
  -2.1626992e-01
  -2.6094007e-01
  -2.7348681e-01
  -2.6006455e-01
  -2.2937672e-01
  -1.8916702e-01
  -1.4590463e-01
  -1.0478422e-01
  -6.9726055e-02
  -4.2845932e-02
  -2.3236344e-02
  -9.4239198e-03
  -4.7417399e-05
   6.1422826e-03
   1.0282174e-02
   1.3397126e-02
   1.6225932e-02
   1.8980843e-02
   2.1812360e-02
   2.4844687e-02
   2.8175592e-02
   3.1876396e-02
   3.5991983e-02
   4.0540795e-02
   4.5541277e-02
   5.1046290e-02
   5.7100973e-02
   6.3745631e-02
   7.1015737e-02
   7.8941932e-02
   8.7550029e-02
   9.6861008e-02
   1.0689102e-01
   1.1765138e-01
   1.2914858e-01
   1.4138428e-01
   1.5437977e-01
   1.6812790e-01
   1.8256334e-01
   1.9761496e-01
   2.1320613e-01
   2.2925470e-01
   2.4567296e-01
   2.6236769e-01
   2.7924014e-01
   2.9618602e-01
   3.1309552e-01
   3.2985330e-01
   3.4633849e-01
   3.6242468e-01
   3.7797995e-01
   3.9286684e-01
   4.0694236e-01
   4.2005798e-01
   4.3205966e-01
   4.4278783e-01
   4.5207737e-01
   4.5980315e-01
   4.6593590e-01
   4.7041677e-01
   4.7320115e-01
   4.7426041e-01
   4.7358191e-01
   4.7116897e-01
   4.6704086e-01
   4.6123284e-01
   4.5379615e-01
   4.4479797e-01
   4.3432147e-01
   4.2246579e-01
   4.0934604e-01
   3.9509328e-01
   3.7985457e-01
   3.6379293e-01
   3.4708733e-01
   3.2992822e-01
   3.1241718e-01
   2.9468327e-01
   2.7687838e-01
   2.5914254e-01
   2.4160388e-01
   2.2437868e-01
   2.0757133e-01
   1.9127433e-01
   1.7556832e-01
   1.6052206e-01
   1.4619243e-01
   1.3262442e-01
   1.1985117e-01
   1.0789392e-01
   9.6762037e-02
   8.6453020e-02
   7.6955065e-02
   6.8280354e-02
   6.0401269e-02
   5.3275178e-02
   4.6860153e-02
   4.1114964e-02
   3.5999087e-02
   3.1472697e-02
   2.7496674e-02
   2.4032597e-02
   2.1042749e-02
   1.8490115e-02
   1.6338381e-02
   1.4551935e-02
   1.3095869e-02
   1.1935974e-02
   1.1038746e-02
   1.0371381e-02
   9.9017770e-03
   9.5985361e-03
   9.4314105e-03
   9.3804152e-03
   9.4339226e-03
   9.5809052e-03
   9.8108960e-03
   1.0113988e-02
   1.0480836e-02
   1.0902654e-02
   1.1371218e-02
   1.1878862e-02
   1.2418482e-02
   1.2983536e-02
   1.3568040e-02
   1.4166572e-02
   1.4774270e-02
   1.5386832e-02
   1.6000518e-02
   1.6612147e-02
   1.7219099e-02
   1.7819315e-02
   1.8412456e-02
   1.9004329e-02
   1.9594650e-02
   2.0182067e-02
   2.0765405e-02
   2.1343659e-02
   2.1915996e-02
   2.2481758e-02
   2.3040460e-02
   2.3591790e-02
   2.4135608e-02
   2.4671947e-02
   2.5201014e-02
   2.5723188e-02
   2.6239023e-02
   2.6749244e-02
   2.7254749e-02
   2.7756610e-02
   2.8256071e-02
   2.8754551e-02
   2.9253639e-02
   2.9755100e-02
   3.0260870e-02
   3.0773059e-02
   3.1293949e-02
   3.1825996e-02
   3.2371829e-02
   3.2934250e-02
   3.3530043e-02
   3.4175672e-02
   3.4879260e-02
   3.5657041e-02
   3.6533360e-02
   3.7540668e-02
   3.8719530e-02
   4.0118619e-02
   4.1794718e-02
   4.3812720e-02
   4.6245628e-02
   4.9174555e-02
   5.2688724e-02
   5.6885467e-02
   6.1852852e-02
   6.7624079e-02
   7.4351697e-02
   8.2170797e-02
   9.1175358e-02
   1.0141824e-01
   1.1291120e-01
   1.2562488e-01
   1.3948878e-01
   1.5439133e-01
   1.7017982e-01
   1.8666042e-01
   2.0359821e-01
   2.2071713e-01
   2.3770003e-01
   2.5427504e-01
   2.7006185e-01
   2.8458504e-01
   2.9743416e-01
   3.0826376e-01
   3.1679343e-01
   3.2280777e-01
   3.2615639e-01
   3.2675392e-01
   3.2458003e-01
   3.1967937e-01
   3.1216164e-01
   3.0220154e-01
   2.8993209e-01
   2.7568069e-01
   2.5993502e-01
   2.4314337e-01
   2.2571461e-01
   2.0801819e-01
   1.9038419e-01
   1.7310324e-01
   1.5642660e-01
   1.4056610e-01
   1.2569417e-01
   1.1194383e-01
   9.9408703e-02
   8.8142989e-02
   7.8161492e-02
   6.9439606e-02
   6.1851474e-02
   5.5271177e-02
   4.9755185e-02
   4.5232726e-02
   4.1493931e-02
   3.8189833e-02
   3.4832371e-02
   3.0794386e-02
   2.5309624e-02
   1.7472734e-02
   6.3723260e-03
  -9.1419207e-03
  -2.9698846e-02
  -5.4584093e-02
  -8.1733256e-02
  -1.0773187e-01
  -1.2800944e-01
  -1.3665157e-01
  -1.2678512e-01
  -9.2642550e-02
  -2.9658571e-02
   6.5529879e-02
   1.9505423e-01
   3.5653708e-01
   5.3995414e-01
   7.3112399e-01
   9.1204074e-01
   1.0608741e+00
