   8.6826678e-01
   1.0894121e+00
   7.1131320e-01
   8.4983842e-01
   6.1497022e-01
   5.2490192e-01
   1.4214804e-01
   5.8997666e-02
  -4.7933665e-01
  -2.4010971e-01
  -2.3993848e-01
  -5.1514145e-01
   7.2625458e-02
  -3.5768748e-01
  -1.0326440e-01
  -2.1633756e-01
  -7.8416174e-01
  -2.0287189e-01
   1.4092216e-02
   3.4786158e-01
  -3.0628135e-01
  -3.8638060e-01
  -2.1084338e-01
  -2.9740488e-01
   4.3062644e-02
  -7.8380424e-02
  -1.7268614e-01
   1.5341645e-02
  -2.3108443e-01
   9.2117251e-03
  -2.7542443e-01
  -4.2850921e-01
  -2.5151663e-01
   3.0611778e-01
   2.7353299e-01
   1.1574841e-01
   1.5492173e-01
  -9.9728546e-02
   1.5152418e-01
  -1.4340866e-02
   8.3752658e-02
  -2.7301602e-01
   1.5219801e-01
  -2.5938068e-04
   2.9749876e-01
   4.6979570e-02
   2.1215935e-01
   2.0066421e-01
  -1.5605544e-01
   3.7434691e-01
   3.0314547e-01
  -1.6666874e-01
  -1.2249301e-01
   1.4396071e-01
  -1.0569653e-01
  -4.1269539e-02
   3.3610365e-01
   2.1371835e-01
   3.9199658e-01
   2.0543672e-01
   3.5375266e-01
   6.6769390e-01
   1.8832187e-01
   3.5693524e-01
   3.5967007e-01
   2.2687529e-01
   4.2722010e-01
   2.2106315e-01
   1.9071713e-01
   1.6717185e-01
   6.1789361e-01
   1.0189225e-01
   8.5707981e-02
   6.3016329e-01
   6.4569064e-01
   3.2569262e-01
   5.4232739e-01
   4.3911419e-01
   2.4732391e-01
   3.2583965e-01
   2.0889120e-01
   1.9851158e-01
   4.8310957e-01
   2.1103976e-01
   8.6503771e-02
   1.4681050e-01
   1.3982421e-01
   2.3254460e-01
   1.6419982e-01
  -7.5865417e-02
   2.4120359e-01
   2.9703156e-01
   4.4182239e-02
   3.2158438e-01
   1.3734111e-01
  -3.1350832e-01
   1.8228011e-01
   1.9919102e-01
   8.6534244e-02
  -2.3388782e-01
   3.2136402e-01
   4.4821748e-03
   2.2732707e-01
  -2.9694055e-01
  -7.8491013e-02
  -1.6803460e-01
  -1.7362707e-01
   9.7797641e-03
  -2.0554458e-01
  -7.2721037e-02
  -5.0079319e-02
   4.9232069e-02
  -2.4714388e-01
  -2.9600444e-02
  -5.0206108e-01
  -1.8972838e-01
  -2.2961697e-01
   2.1080678e-01
   5.2359917e-02
   6.7468490e-02
   2.1063448e-01
  -2.6392539e-01
  -2.4924063e-01
  -1.4638021e-01
  -2.5092604e-02
  -4.7344006e-02
  -1.4569726e-02
  -4.5937929e-02
   1.7015783e-01
  -5.2669450e-01
  -4.2085805e-01
  -1.6698900e-01
   5.0714348e-02
   1.2817717e-01
  -9.8597119e-02
   1.5456299e-01
  -3.7770233e-02
  -4.9737004e-02
  -9.8319167e-02
  -2.5103121e-01
  -3.9726680e-01
  -3.9166110e-02
   2.0006954e-01
   3.7181561e-02
  -8.2303751e-02
  -2.5457870e-01
  -7.6122023e-02
  -4.8479779e-01
   2.3807679e-02
  -2.9143434e-01
   9.0823826e-02
   5.8081170e-02
  -4.2813966e-02
   3.6585530e-01
  -1.5297985e-01
  -1.8764169e-01
  -4.4363817e-02
   4.2892488e-01
   9.4219042e-02
  -8.9347053e-02
   1.9182371e-01
  -2.1742112e-01
  -2.9146167e-02
   2.8260971e-01
  -3.9407651e-02
  -2.2680843e-01
   2.4426086e-01
  -9.4746815e-02
  -1.8788391e-01
   1.9285934e-01
   1.3092458e-01
  -2.3728071e-01
   2.7378134e-02
  -2.6194746e-01
  -5.3831527e-02
  -1.3087022e-02
  -7.0080915e-02
  -4.9024485e-01
   4.9157020e-01
  -3.9445435e-02
  -5.2916340e-02
   2.0503964e-01
   2.4863585e-01
   2.1639975e-02
   1.0103576e-01
   5.0254757e-02
  -4.5671719e-02
   1.0858540e-01
   2.2162007e-01
   5.7863240e-02
   1.6172058e-01
   1.7342411e-01
   1.2145397e-01
   4.7350322e-01
   1.2777462e-01
   3.5792105e-01
   2.0004550e-01
   2.9936838e-02
  -2.0939541e-01
   3.7219765e-01
   7.5002608e-01
   3.7382303e-01
   6.2643004e-02
   5.9868004e-04
   2.0074392e-01
   5.0538670e-01
   3.9415068e-01
   4.7079713e-01
   9.0559254e-02
   4.7828693e-01
   5.9035159e-01
   2.6833099e-01
   4.6820246e-01
   3.2946614e-01
   1.5455987e-01
  -2.1321359e-01
   5.6231519e-02
   1.9332495e-01
  -1.1549072e-02
   3.3015527e-01
   2.1430174e-02
   5.1904068e-03
   2.3663114e-01
   1.2675271e-03
  -1.7526576e-01
   1.4907954e-02
   2.6855838e-01
   3.1522892e-01
   1.0191104e-01
   1.1579437e-01
   2.0455591e-01
   2.7588747e-01
  -3.4559628e-01
   1.1812427e-01
   3.4258097e-02
   8.8490101e-02
  -4.0776387e-01
   4.7204224e-02
  -2.6171687e-01
  -2.7188262e-01
   1.9932144e-01
   2.2153426e-02
   1.1896522e-01
   9.4979319e-02
  -3.1403484e-01
   3.9889494e-01
   3.7842879e-01
   4.1186851e-01
   4.0568738e-01
   5.7815927e-01
   7.9318036e-01
   8.5499196e-01
   1.1028602e+00
   1.2272916e+00
   8.9020040e-01
   1.0177306e+00
   5.1321843e-01
   4.2712956e-01
   4.5975356e-01
   2.6410560e-01
   2.5765177e-01
  -8.0188306e-02
  -3.7265962e-01
  -2.4984858e-01
  -5.7121301e-01
  -2.4717847e-01
  -3.1397836e-01
  -6.6285119e-01
  -5.5983036e-01
   4.3681037e-04
  -9.2144992e-02
  -3.6427994e-01
  -1.2748466e-01
  -1.0695760e-01
  -1.5629114e-01
  -2.4216574e-01
   2.5405363e-01
  -6.5005630e-02
  -8.0067647e-02
   1.8663837e-01
  -2.5829572e-01
  -1.2546366e-01
   2.3202867e-01
  -8.3153820e-02
   1.3491667e-01
  -8.9972802e-02
   1.4637512e-01
   1.9878724e-02
  -6.0616271e-02
  -3.6467298e-01
  -1.5908491e-01
   4.2490072e-01
   3.5365926e-01
  -2.2403965e-01
   3.8321611e-01
   4.3386901e-02
   1.1894796e-02
  -7.7671024e-02
   1.9921726e-01
   1.6273278e-01
  -3.0661610e-02
   2.4770713e-01
   1.0322296e-01
   3.2808706e-01
   9.4670589e-02
   5.7697998e-01
   3.3468171e-01
   1.7335287e-01
   9.3897204e-02
  -1.3395404e-01
   6.2034023e-01
   1.4180620e-01
   2.6418542e-01
   4.7522712e-01
   4.8766398e-01
   6.1578013e-01
   1.6597276e-01
   1.6671262e-01
   7.1379668e-01
   2.8587290e-01
   5.5205401e-01
   4.0004891e-01
   6.3253327e-01
   3.2873931e-01
   3.0399235e-01
   4.6592080e-01
   6.7185437e-01
   5.2393025e-01
   4.7926204e-01
   9.5006261e-02
   8.6352512e-01
   5.2798180e-01
  -1.8546800e-01
   3.7098233e-01
   5.8763316e-01
   3.5917245e-01
   4.6734678e-01
   2.5410642e-01
   2.8925593e-01
   6.9549958e-01
   1.3707325e-02
   4.0992246e-01
   4.4014755e-01
  -1.4447544e-01
  -7.8498470e-02
   1.3452569e-01
   4.5837498e-01
   3.6214146e-01
   5.4407840e-01
   2.6694710e-01
   2.2725070e-01
   9.6477446e-02
   2.4140383e-01
   2.0682106e-01
  -1.4824395e-01
  -2.9314205e-01
   3.2677316e-01
  -1.5100883e-01
   2.0099084e-02
  -1.4824364e-01
   9.2384272e-02
  -2.8941880e-01
   8.4561017e-02
   2.0769958e-02
  -1.2533205e-02
   1.7926939e-01
   1.9903335e-01
  -2.2761490e-01
  -3.3455857e-01
   8.2310846e-02
   1.9488585e-01
   3.7106007e-01
   1.8074925e-01
  -4.6685224e-02
   8.5500103e-03
  -1.3431121e-01
   6.2910602e-02
   1.2120251e-02
  -4.2144833e-01
   5.7527317e-02
   6.8594437e-02
  -3.1136773e-01
  -3.0642893e-01
  -3.0760294e-02
  -2.7556267e-01
  -1.8234923e-01
   3.4429163e-01
   6.5294085e-02
  -3.7410454e-01
   1.2538651e-01
  -4.3401595e-01
   1.1040088e-01
   2.5416777e-01
  -1.1265305e-01
   4.2029889e-02
  -1.2384561e-01
   4.8634724e-02
   2.8185538e-01
   1.8579887e-01
  -1.6973191e-01
   1.8630002e-02
   1.7838122e-01
   3.3823663e-01
  -1.1808721e-01
  -7.9167894e-02
  -1.1801565e-01
   8.3836025e-02
   1.6854079e-01
   4.2422588e-02
  -1.0946436e-01
  -1.1628317e-01
  -1.1739752e-01
  -7.7720851e-02
  -1.5830147e-03
   1.5245089e-01
   2.1285633e-01
   1.5205434e-01
   1.8306039e-01
   8.1490459e-02
   7.4873260e-02
  -1.5927988e-01
   2.7659280e-02
   3.1044930e-01
  -1.8804810e-03
  -1.0101753e-01
   2.6105635e-01
   4.0603436e-02
  -3.3170785e-01
   2.2395799e-01
  -7.4758575e-02
  -6.1932714e-02
  -1.8600099e-01
   2.5751023e-02
   4.3009812e-01
  -4.0954550e-02
  -4.1762772e-02
  -2.1973112e-02
   2.9483914e-01
   4.1854766e-01
  -1.7912074e-01
   4.7741117e-02
   3.4562077e-01
   6.3638145e-02
  -1.1667017e-01
  -1.4146138e-02
   6.4793587e-02
   3.2366642e-01
   3.2492182e-02
   5.6462167e-01
  -1.0538267e-02
   2.3983357e-01
  -1.2662089e-01
   1.3492322e-01
  -1.9263980e-02
   1.2402010e-03
   1.4571688e-01
  -5.8151230e-04
   1.3824858e-01
   8.1650565e-02
   3.0536441e-01
   3.1471830e-01
   2.0338622e-01
   5.5555636e-01
   1.2371951e-02
   4.3223670e-01
   4.3329034e-01
   6.0713376e-01
   7.5183190e-01
  -6.8320069e-02
   4.1688780e-01
  -1.5558655e-02
   3.4349334e-04
   3.3588395e-01
   1.5167441e-01
   5.7708838e-02
   6.7365277e-02
   2.6679625e-01
   3.4189147e-02
   3.3942655e-01
   8.6925495e-02
   4.2264334e-01
   2.6532215e-01
   3.5683940e-01
   2.2497075e-01
   2.2695440e-02
   3.1707131e-01
   8.5291013e-02
   4.4415046e-02
  -4.6269794e-01
  -2.9016212e-02
   2.5136339e-01
  -1.7386210e-01
   3.9842456e-01
   8.9207656e-02
   2.3493703e-02
  -4.1945523e-02
  -1.4961210e-01
  -4.2487452e-01
   8.7639400e-02
   2.3022557e-01
  -1.5747153e-01
  -3.9752380e-01
  -8.4120978e-02
   7.8339788e-02
  -1.7932150e-01
   1.7579618e-01
  -8.8947120e-02
  -4.3356529e-01
   5.7290879e-02
   4.7767168e-01
   4.1527414e-01
   5.6119515e-01
   8.6860760e-01
   8.9713224e-01
   1.0668015e+00
   1.0687498e+00
   1.3886163e+00
   1.0233433e+00
   1.3339778e+00
   8.7380024e-01
   1.0084320e+00
   5.0845696e-01
   5.9192834e-01
   9.9931748e-02
  -8.5322040e-02
  -1.8321693e-01
  -4.2779067e-01
  -3.7570069e-02
  -1.0587096e-01
  -5.2862860e-02
  -5.2178158e-01
  -2.1402958e-01
  -3.0100618e-02
  -2.0799953e-02
  -3.7221571e-01
   1.3305812e-01
   5.9527721e-02
  -4.4000883e-01
   1.6771882e-01
   1.2319126e-01
   1.9737490e-01
   4.8832318e-01
  -1.8303271e-01
   2.7999833e-02
   2.7381244e-01
   1.2001771e-01
  -2.0048400e-01
  -1.0241009e-01
  -1.0329182e-01
  -4.7988674e-02
  -1.7537509e-01
   9.8101447e-02
  -2.6181120e-01
   3.0934363e-01
   2.9217963e-01
  -3.1948912e-01
   9.9799646e-02
   1.9353544e-01
   2.5069967e-01
   3.6187796e-01
   2.7135288e-01
  -2.0626567e-02
  -1.5388677e-01
   2.6983272e-01
   5.2983976e-01
   5.3774983e-01
   3.1359889e-01
   2.9513632e-02
   1.9108472e-01
   6.4068467e-01
   2.2258757e-01
   2.2643513e-01
   1.8917965e-01
   4.9745239e-01
   5.3898907e-01
   4.2363819e-02
   4.0105099e-01
   4.5468819e-01
   5.0541222e-01
   4.2983860e-01
   4.9499340e-01
   4.7813610e-01
   6.4448614e-01
   4.8510845e-01
   5.8545077e-01
   6.0997913e-01
   1.1308646e-01
   1.1739088e-01
   4.4199019e-01
   4.4643398e-01
   1.1912715e-01
   5.9320870e-01
   2.7438206e-01
   4.1112509e-01
   5.8216977e-01
   5.9637107e-01
   4.1189345e-01
   5.3023817e-01
   2.9487110e-01
   2.0758469e-01
   3.0827499e-01
   8.2193651e-02
   4.5965862e-01
   2.0619492e-01
   1.4616729e-01
   4.7065194e-01
  -8.1486337e-02
   2.0087276e-02
   1.7659451e-01
  -1.7311657e-01
   6.3730396e-02
   2.6622871e-01
   3.9785493e-01
   8.9408862e-02
  -1.8403405e-01
  -2.7482706e-03
   1.2040000e-01
  -2.0886697e-02
   1.0920962e-01
   9.7625335e-02
   3.3694649e-01
   1.2007645e-01
   1.3944217e-01
  -8.8532592e-02
  -1.9798575e-01
  -1.4982338e-01
   2.6385427e-01
  -1.1853331e-01
   8.9978121e-02
  -2.6850990e-01
   1.5995261e-01
  -5.2975234e-02
   7.9513804e-02
   1.1872453e-01
  -2.0759173e-01
  -6.8713854e-02
   1.2427505e-01
  -4.3517792e-02
  -9.4200863e-02
   3.1731238e-01
   2.3381558e-01
  -2.9239367e-01
  -1.0605042e-01
  -2.8933385e-01
   2.3325882e-02
   2.6252923e-01
   2.4204382e-01
  -5.8965537e-02
   1.1185702e-01
   2.4660848e-01
   1.3510849e-01
  -2.9810746e-01
   2.5980787e-01
   9.7305738e-02
  -4.3341270e-01
   4.3697522e-02
  -1.2982812e-01
  -7.2272424e-02
   3.2130969e-01
  -3.1417218e-01
   2.3176154e-01
  -1.0191757e-01
  -9.5556200e-02
  -3.2351420e-01
   3.6461300e-02
  -1.1133983e-01
  -5.3259865e-02
   1.8538451e-01
   1.1663309e-01
  -7.2798893e-02
   1.7854237e-01
   2.0903743e-01
  -3.1697894e-01
  -1.4224661e-04
  -1.7973989e-01
  -5.5672700e-02
  -8.9343989e-03
   5.0000571e-02
   1.5057227e-01
   4.9245852e-02
   3.2528446e-01
  -1.5135127e-01
   2.7426507e-01
  -1.9601490e-01
  -3.4252174e-02
   1.5629686e-01
   7.6919254e-02
  -1.3864890e-01
   7.5536936e-03
   2.8041846e-01
   5.1361902e-02
   1.6280079e-01
   7.8787413e-02
   2.1195698e-01
  -3.9577196e-01
  -2.6646057e-02
  -1.6266941e-02
  -1.7118020e-01
  -3.4921178e-01
  -7.4162569e-02
   2.5471139e-01
  -1.1147756e-01
   2.4954876e-01
  -7.4903910e-02
   1.5231669e-01
  -1.2022464e-01
  -1.0855847e-01
   2.4346425e-01
   1.2412926e-01
   1.9409668e-01
   8.2028204e-02
   1.8869801e-01
  -1.0045502e-01
   4.1056741e-01
   3.7241710e-01
  -8.0696827e-02
   9.6697127e-02
   3.1011864e-01
   4.2209910e-01
   1.9855469e-01
  -1.7067647e-01
  -1.1257637e-01
   3.6156387e-01
  -1.3434655e-01
   2.4647887e-01
   7.9412962e-01
   8.9392168e-02
   3.3910426e-01
   1.3171803e-01
   1.6212017e-01
   2.0006445e-02
   6.6544424e-01
  -4.1906487e-02
  -8.5760975e-03
   4.4628222e-01
   5.2571047e-01
  -1.2077670e-02
  -1.2934800e-01
   5.1365494e-01
   1.5410192e-01
  -6.2070083e-02
   3.3990913e-01
  -1.7525105e-01
  -1.9266674e-01
   1.6007555e-01
   1.0810309e-01
   8.7972969e-02
   1.4241585e-01
   3.4022327e-02
  -2.3193586e-01
   1.3499942e-01
  -9.3236725e-02
  -8.0138697e-02
   8.8029798e-02
   7.1237036e-02
  -1.7171252e-01
  -2.6755894e-01
   3.3998949e-01
  -1.7729000e-01
  -2.8195230e-01
  -2.0064544e-01
  -2.7782285e-01
  -3.8182085e-01
   1.0682613e-01
   1.2544579e-01
  -1.8176462e-01
   4.2597376e-01
   5.1897172e-01
   6.8324432e-01
   5.2717001e-01
   1.0814907e+00
   1.1896007e+00
   9.7007788e-01
   1.0782258e+00
   9.2570720e-01
   7.8222445e-01
   6.4149399e-01
   2.7464104e-01
   1.3595162e-01
   3.6374283e-01
  -4.8215547e-01
   1.2274671e-01
  -2.6596514e-01
  -8.8869183e-02
  -3.6474840e-01
   1.2059299e-01
  -1.7071292e-01
  -3.0133053e-01
  -1.8320524e-01
   4.0813155e-01
  -1.4196409e-01
  -2.0006735e-01
  -3.1020932e-01
   1.5013597e-01
  -9.5517567e-02
   5.7930505e-02
  -2.1231680e-01
  -2.0930247e-02
  -5.7243147e-02
   3.2901699e-01
  -2.0881064e-01
   7.3677027e-02
  -2.5063220e-01
  -7.2662231e-02
   6.0726930e-02
   1.3825645e-02
  -1.8862708e-01
   1.7767177e-01
   3.8376744e-01
  -3.1445885e-02
   2.0712823e-01
   1.0852343e-01
   2.6636900e-01
  -2.5293308e-02
  -1.2002969e-03
  -2.7057788e-01
   1.8158135e-01
   2.5344271e-01
   3.9787983e-01
   2.0148122e-01
   1.6736553e-01
   1.5539270e-01
   2.9192741e-01
   1.8122707e-01
   1.3044535e-02
   3.6940216e-01
   1.1721336e-01
   2.4344379e-01
  -3.5752289e-02
   5.4428549e-02
   1.4180480e-01
   1.4502657e-01
   3.8810700e-02
   8.0934913e-01
   2.5606361e-01
   1.7757409e-01
   4.7895000e-01
   1.9819322e-01
   2.1480509e-01
   3.2501375e-01
   2.7360783e-01
   3.9540300e-01
   4.1115030e-01
   4.1770878e-01
   2.6939102e-01
   1.3723183e-01
   5.3115673e-01
   4.9750142e-01
   2.6142571e-01
   4.7508027e-01
   5.8536794e-01
  -6.4681989e-03
   1.4944679e-01
   2.4142023e-01
   1.4088568e-01
   6.1864466e-02
   2.7382239e-01
   1.5900879e-01
  -7.8792977e-02
   1.9406038e-01
   6.8395188e-02
  -2.3115911e-02
   3.5390356e-01
   1.7502192e-01
  -6.2955281e-03
   2.2271803e-01
  -2.1204174e-02
  -7.3078150e-02
  -5.6299733e-02
  -5.8941849e-02
  -8.7467360e-03
   2.1557867e-01
   1.5318502e-01
  -8.6990319e-02
  -2.8550362e-01
   2.9029416e-01
  -1.8250354e-01
  -3.2739880e-01
  -8.5462345e-02
  -6.2931576e-02
  -1.3285224e-03
  -5.2008144e-02
  -1.8602518e-01
  -6.9217827e-02
   1.9198239e-02
   1.9833034e-01
  -1.4293250e-02
   1.3515768e-01
  -2.2033876e-01
  -1.6703388e-02
  -2.4436754e-01
  -1.8943416e-02
  -1.6157387e-01
  -2.5407534e-02
  -2.3752426e-01
  -1.3591809e-02
   2.8326672e-01
  -1.2537490e-01
  -1.4827952e-01
   3.6374506e-01
  -1.1513230e-02
   6.7745843e-02
  -2.6664190e-01
  -2.4535437e-01
  -5.6384557e-01
  -2.1948364e-01
   1.0398595e-01
  -3.1125234e-01
   4.4184588e-02
   3.7366008e-01
  -5.0826535e-02
  -4.0317297e-01
  -1.3793104e-02
  -1.6634049e-01
  -6.5460152e-02
  -1.8895112e-01
  -2.8207330e-01
  -4.3917942e-02
  -7.0971462e-01
  -1.9399128e-01
  -2.7308939e-01
  -1.7973415e-01
  -4.5521297e-02
  -2.5848498e-01
  -1.6172894e-01
   3.1725399e-02
   5.0109892e-02
   5.1152667e-02
  -1.7371814e-02
  -2.1106025e-01
  -2.7759613e-01
   2.1736710e-01
  -3.1912988e-01
  -1.2286294e-01
  -2.8633897e-01
  -4.2311741e-02
  -2.9148637e-01
   3.8879717e-01
   1.4211158e-02
  -2.5059588e-01
   3.3471286e-01
  -3.0139270e-01
   5.5392328e-01
   7.9416606e-02
   3.7038860e-01
   6.1592132e-02
  -6.8900535e-02
  -8.3316456e-03
   1.8741356e-01
  -1.8604420e-01
  -6.2752241e-02
  -4.2572300e-01
   1.0954137e-01
   1.0610816e-01
   2.4089357e-01
  -2.1536340e-01
  -1.5970676e-01
   2.3876376e-03
   2.0496367e-01
   1.2868278e-01
   5.1210131e-02
  -1.8467742e-01
   2.3078566e-01
   2.7234290e-01
   2.1850475e-01
   1.1101643e-01
   3.4189131e-01
   8.5497681e-02
   2.2937343e-01
  -1.8878035e-01
   2.9771244e-01
   2.7369770e-01
   1.7717829e-01
   1.0518337e-01
   4.0236542e-01
   1.0191793e-01
   2.6692212e-01
  -3.3554115e-01
   1.0878884e-01
  -3.9451526e-02
   4.7940019e-01
   1.2011531e-01
  -1.2647724e-03
   5.2328331e-02
  -2.5125298e-02
  -2.6164420e-01
  -6.4259398e-02
   9.2299659e-02
   2.7217552e-02
  -1.4733305e-01
  -4.3877964e-01
   2.1105074e-01
  -3.7920366e-01
  -2.6613649e-01
  -7.6688195e-02
  -1.7240967e-01
  -1.8844217e-01
   3.7671858e-01
   1.5655279e-01
   1.4024130e-01
  -3.6604235e-02
  -1.9772448e-01
  -8.3132961e-02
  -2.0107110e-01
  -1.9462868e-01
  -6.7891959e-02
  -8.6602011e-02
  -8.2418622e-02
  -6.2394908e-01
  -1.7288957e-01
  -5.6863560e-02
   3.5971897e-01
  -2.7961282e-01
  -1.5848488e-01
  -3.8765222e-02
   3.4505151e-01
   3.5472033e-01
   8.0864789e-01
   7.4732593e-01
   9.1489853e-01
   1.1739601e+00
   7.4758700e-01
   1.0772266e+00
   1.1864552e+00
   6.8039609e-01
   5.7970911e-01
  -1.6846694e-01
   2.7075665e-01
  -6.4556539e-01
  -4.3300242e-01
  -8.7406628e-02
  -5.3997108e-02
  -3.5578366e-01
  -1.6849344e-01
  -6.5733129e-01
  -6.2598368e-01
  -4.7357611e-01
   5.9970969e-02
  -4.1877809e-01
  -3.0226259e-01
  -5.4768482e-01
  -1.6071032e-01
  -4.6913420e-01
   6.0893441e-01
   9.2139041e-02
   2.9322757e-02
  -1.0266340e-01
  -2.3129399e-01
  -5.0744933e-01
  -4.2133291e-01
  -6.1607638e-01
  -1.6476082e-01
  -1.4531656e-01
  -8.6130796e-02
  -2.5281215e-01
  -1.8835665e-01
  -1.8474146e-01
   4.2775381e-02
  -3.9857099e-01
  -2.1247007e-01
  -7.0056451e-02
  -1.8795045e-01
   1.9969080e-02
  -1.3171493e-01
   2.9617999e-02
   3.0362039e-02
   7.1006217e-02
  -1.2470300e-01
  -3.0148588e-02
   1.9245452e-01
  -1.0916371e-02
   3.1067675e-01
   4.2651827e-02
   3.1890832e-02
   5.5122036e-01
  -2.3441404e-02
   1.8873860e-01
  -1.2039197e-01
   2.5979229e-01
   1.7266762e-01
   1.9268185e-01
   4.7236152e-01
   3.7957770e-01
   2.3801276e-01
   3.9140702e-01
   4.8294342e-01
   2.1488509e-01
   6.0098919e-01
   1.7141428e-01
   5.9192283e-01
   5.2398244e-01
   6.6455335e-02
   1.1403750e-01
   5.5636654e-01
   4.1373493e-01
   2.3200049e-01
   2.8725420e-01
   2.7102702e-01
   3.7132021e-01
   3.5893215e-01
   1.4305215e-01
   4.5967848e-01
   5.0752041e-01
   2.3010337e-02
   6.2511084e-01
   2.9670662e-01
  -1.8187822e-01
  -8.7204497e-02
   1.8200077e-01
   3.4274338e-02
  -1.2138464e-01
   4.0756441e-02
  -6.0662501e-04
   9.2892501e-02
   2.2954163e-01
   1.8543967e-01
   1.3902038e-01
   3.5050453e-01
   1.2038374e-01
  -8.5742707e-02
  -1.6160397e-01
  -9.7276430e-03
   6.4141756e-02
   7.8345622e-02
  -1.5878389e-02
   2.5686076e-02
  -2.9050290e-01
  -3.3809759e-01
  -2.0707288e-01
  -9.7792829e-02
  -9.6695383e-02
  -3.7800327e-03
  -4.1632307e-01
  -2.0573127e-01
  -2.7241814e-01
   1.4160876e-01
  -2.7042905e-01
  -2.0828800e-01
  -1.4934540e-01
  -2.0654106e-02
  -3.2442895e-01
   2.6724001e-01
   5.0659075e-02
   8.8265347e-03
   3.9444604e-01
  -1.9967557e-01
  -3.0656378e-02
  -1.7201231e-01
  -2.4390028e-02
  -2.7976037e-01
   6.8419503e-02
  -1.6379009e-01
  -2.7200513e-01
   2.5368443e-01
   3.7721477e-01
   5.5769284e-02
   3.2393549e-01
  -3.9100514e-01
  -1.7830794e-01
  -1.0098227e-01
  -5.9411063e-01
  -1.2628381e-01
   1.5133157e-01
  -8.6067280e-02
  -1.7366974e-01
   1.5044066e-01
   3.1312130e-01
  -1.4246250e-01
  -3.5074577e-01
  -2.1075976e-01
  -2.0741198e-01
  -1.0831863e-01
  -2.8392546e-01
  -4.6816065e-01
  -4.7282559e-02
  -1.6862861e-01
   1.1920554e-01
  -5.3394511e-01
   6.8499865e-02
  -7.1896514e-02
  -1.6697695e-01
  -1.2872783e-01
  -3.7780614e-01
   7.4147555e-02
  -8.2711643e-02
  -2.0346445e-01
  -4.0041934e-02
  -2.7577831e-01
   1.1125439e-01
  -5.4450814e-02
   1.7444066e-01
   3.3665620e-02
  -1.7661617e-01
  -2.2679924e-01
  -3.8531421e-01
   3.2791272e-02
   2.2630290e-03
  -3.7877514e-02
  -6.0163004e-02
   6.2844842e-02
  -1.4365435e-01
  -1.2099247e-01
  -5.2741435e-02
   4.2155860e-02
  -1.0499127e-02
  -1.9312410e-01
  -1.9298723e-01
  -3.7155965e-01
  -2.3448278e-01
   3.3924971e-02
   3.0687116e-03
   1.5432900e-02
   1.3532511e-01
   3.2823801e-01
  -7.8882567e-02
   4.8213241e-01
   2.3260332e-01
   4.5134362e-01
   2.5321267e-01
  -2.3963848e-01
   5.3108137e-01
   3.0671734e-01
   5.2953194e-01
   2.4959851e-01
   2.3046177e-01
   1.3813248e-01
   2.7423375e-01
   1.9415877e-01
   3.0155782e-01
   5.1542663e-01
   3.3228323e-01
   4.3933970e-01
   4.4047724e-01
   2.9326040e-01
   4.9357065e-01
   1.2850998e-01
   1.7035597e-01
  -2.6713926e-05
   9.6918564e-02
   6.9640295e-01
   1.8804685e-01
   3.0950191e-01
   1.7943783e-02
   6.0578574e-02
   1.6843407e-01
  -2.9299492e-01
   5.8356832e-02
  -1.9104421e-01
   2.6933145e-03
   2.3576084e-02
   2.0944607e-01
  -1.8548056e-02
   1.3420021e-01
   2.0815799e-02
  -1.8105490e-01
  -2.0374274e-01
  -1.5162333e-03
  -1.1496526e-01
   5.4609985e-01
  -2.5960415e-02
   1.6602472e-01
  -4.4079300e-01
   2.9108797e-02
  -5.3041094e-02
  -1.3718434e-01
   1.4816173e-02
  -1.3605109e-01
  -7.1181670e-02
  -2.9517402e-01
   1.9124083e-01
   2.9885362e-03
  -1.9450847e-01
  -1.6826401e-02
   3.1672839e-01
   4.6470707e-01
   4.6428577e-01
   7.0192562e-01
   8.9703956e-01
   1.0712798e+00
   1.1092400e+00
   1.0465910e+00
   1.0386649e+00
   8.4192559e-01
   5.5183008e-01
   6.5614714e-01
   6.1352626e-01
   3.1850885e-02
  -1.7053453e-01
  -2.2168761e-01
  -2.6215414e-01
  -7.1926442e-01
  -7.1415372e-01
   2.6070961e-02
  -2.9405595e-01
  -3.4377847e-01
  -2.5709469e-01
  -4.3900397e-01
   1.0963156e-01
   4.8463518e-02
  -2.8294096e-01
  -1.4564481e-01
  -2.2156191e-01
  -2.2789860e-01
   2.8219082e-01
   3.5323434e-02
  -1.1038670e-01
   1.0849509e-01
  -9.8683317e-02
  -9.1606297e-02
  -1.6916588e-02
  -3.2584007e-01
   1.9110643e-01
  -1.2889187e-01
  -8.9071347e-02
  -7.5852848e-02
   1.9839646e-01
  -1.4348587e-01
   2.2735009e-01
  -1.7783425e-02
  -1.2256729e-01
  -3.2121136e-02
   2.4965691e-01
   4.7313907e-02
   6.8433713e-02
   3.9009222e-02
   5.1461377e-01
   6.5141562e-01
   3.2065197e-01
   1.1009654e-01
  -1.2222160e-01
  -1.5513048e-01
   1.1684917e-01
   2.6227531e-01
  -8.1927399e-02
   4.7302874e-01
  -2.4546587e-01
   3.3881529e-01
   4.8846209e-01
   4.8085828e-01
   2.0226957e-01
   3.4114504e-01
   5.3870169e-01
   5.3500174e-01
   4.2110306e-01
   7.0795915e-01
   1.5804751e-01
   2.7649326e-01
   5.5993827e-01
   7.7335533e-01
   2.0478022e-01
   3.0940394e-01
   2.2173054e-01
   4.1319313e-01
   9.1140877e-01
   6.7766122e-01
   5.4753589e-01
   3.9548120e-01
   3.2971273e-01
   4.7455908e-01
  -6.1834437e-03
   5.4448864e-01
   2.9052470e-01
   3.5914973e-01
   3.4812581e-01
   4.6621469e-01
   5.8886961e-01
   4.7589596e-01
   5.5101679e-01
   2.1238809e-01
   6.8734792e-02
   2.0685051e-01
   1.8678063e-01
   5.6676754e-01
   2.2651853e-01
   2.8189091e-01
  -1.2746000e-02
   1.3555861e-01
  -1.4164733e-02
  -1.1929483e-03
  -6.6409071e-02
   7.5001952e-02
   1.4344574e-01
   3.5171834e-01
   2.6090192e-01
  -1.0704496e-01
   1.0495753e-02
  -1.1728628e-01
   8.3925199e-05
   1.7118369e-01
  -3.1408119e-01
   6.6201073e-02
   1.0093014e-01
   9.5384507e-02
  -1.6126994e-01
  -7.1679177e-02
  -8.4532579e-02
  -2.0422547e-01
   3.8170505e-02
  -9.1395731e-02
   1.5566059e-01
   6.8797685e-02
  -2.5464968e-02
   2.7500015e-02
  -1.8851930e-01
  -2.4808173e-02
   7.8824049e-02
  -4.6462080e-02
   4.8427831e-01
   1.4496633e-01
   1.5079827e-01
   4.1419052e-01
   3.8829828e-01
   3.6520985e-01
   1.4405678e-01
  -1.5915764e-01
  -2.1717892e-01
  -3.2703535e-01
   2.6889552e-01
   2.2711455e-01
  -9.3598112e-02
  -1.8847609e-01
   5.7173053e-03
  -1.8348083e-01
  -1.1311846e-01
  -3.5105821e-01
   1.4737298e-01
   1.7085393e-01
   4.1367123e-01
   1.6565508e-01
  -6.4992901e-01
   5.8188178e-02
  -7.5599086e-02
   3.9351249e-01
   1.4126694e-01
   4.2832896e-02
   7.8702509e-03
  -7.0056517e-02
   2.5589313e-02
   2.2511853e-01
   8.2914227e-03
   1.0390197e-01
  -2.0645873e-01
  -2.6099847e-01
  -1.9221054e-01
   1.3021835e-02
  -1.3323718e-01
  -4.4831211e-02
   6.8090142e-02
   8.9318644e-02
   1.7711716e-01
  -5.8324964e-02
  -1.5437944e-01
  -1.4538025e-01
   2.9439370e-01
   1.6897030e-01
   3.8824270e-01
  -3.5952892e-01
  -9.2587934e-02
  -3.2454281e-01
   4.5038380e-02
  -2.8155721e-01
  -8.9947525e-02
   3.4912060e-01
   2.0419679e-01
   2.0461927e-01
   4.5305707e-02
  -2.7086488e-01
   3.6165230e-01
   1.3425518e-01
  -7.5557999e-02
   1.3087488e-01
  -1.1221828e-01
   3.0378717e-02
   1.1162100e-01
  -8.9272304e-02
  -4.1357259e-01
   2.3723661e-01
   1.6509274e-01
   3.2242867e-01
  -4.2587979e-02
   1.8941691e-01
   2.3882628e-01
   2.7302191e-01
   5.4554246e-01
   7.9140236e-02
   2.5605679e-01
   3.3675572e-01
   4.8886204e-01
   7.2145040e-01
  -1.0467505e-02
   2.8113827e-01
   2.6230726e-01
   4.5820452e-01
   2.2866785e-01
   2.0198621e-01
   1.9860547e-01
   2.5864120e-01
   1.1848578e-01
   3.4147691e-01
  -5.8934494e-02
  -2.2625336e-01
   2.5776362e-01
  -1.9426909e-01
   1.0466018e-01
   3.0972251e-01
   4.5163640e-01
   7.8274754e-02
   6.4502477e-01
  -2.1714738e-01
   1.3394238e-01
   4.6427129e-02
  -9.0320486e-02
   1.6599134e-01
   1.8052135e-01
   7.9602652e-02
  -2.3439525e-01
  -9.8719700e-05
   2.6250192e-01
  -3.1937061e-01
   6.6575886e-02
  -7.7312942e-03
  -3.7140377e-02
   4.7464755e-01
  -2.5827173e-01
   2.5106541e-01
   1.1834647e-01
   8.2472738e-02
  -1.0020563e-01
  -2.8463472e-01
  -8.0621169e-02
  -2.1410621e-01
  -9.5295644e-02
  -7.6285742e-02
   9.9848486e-02
   2.2531391e-02
  -2.3521491e-02
   1.6514366e-01
   5.4040377e-01
   8.1448605e-01
   9.5859239e-01
   9.9323394e-01
   1.1656463e+00
   9.4709232e-01
   1.2998659e+00
   8.4626764e-01
   8.0418209e-01
   1.1588244e+00
   5.4653899e-01
   3.4482873e-01
   4.4245272e-01
   1.4308196e-01
  -3.1472652e-02
  -5.0002041e-01
  -2.6375308e-01
  -2.8115523e-01
  -2.1692975e-01
  -3.1964114e-01
  -4.4540993e-01
  -1.0111047e-01
  -1.5864018e-02
   5.2043758e-02
   1.1565037e-01
   1.6710461e-01
   3.0174317e-01
   7.6882713e-02
   3.0268007e-01
  -2.8765580e-01
   6.4730653e-02
   2.4721502e-01
   1.8026242e-01
  -2.0168947e-01
  -3.6532951e-02
   5.7114174e-02
   1.0079056e-01
   2.6618908e-01
   2.0641963e-01
   7.4778427e-02
  -5.2254954e-02
  -5.0303628e-03
   9.2337259e-02
   4.6232384e-02
   8.8356810e-02
   2.7934645e-01
   3.3992016e-01
   1.7591696e-02
   2.5217599e-01
   8.7231380e-02
   9.5324931e-02
   2.3307151e-01
   2.8630811e-01
   1.6349524e-01
   1.3135420e-01
   2.7872366e-02
   1.8890536e-01
   1.6679422e-01
   1.5512468e-01
  -9.3494200e-02
   1.5695323e-01
   6.9260284e-01
   3.9899388e-01
   5.4369082e-01
   4.7604745e-01
   2.0497378e-01
   6.4496928e-01
   3.0298739e-01
   4.7983428e-01
   2.7942259e-01
   6.2505299e-01
   3.3914889e-01
   6.0152973e-01
   1.0054109e+00
   3.0359845e-01
   1.1150465e+00
   4.6452043e-01
   4.2455402e-01
   6.0370159e-01
   5.0666679e-01
   4.9754696e-01
   3.1747161e-01
   6.3497598e-01
   5.1833549e-01
   4.7233682e-01
   3.4960839e-01
   3.7738461e-01
   3.2836036e-01
   3.2922713e-02
   1.9828835e-01
   2.1835816e-01
  -3.8089408e-02
   3.6373421e-01
   2.5886626e-01
   3.4763841e-01
   3.6517008e-02
   3.5240123e-01
  -7.2354327e-02
   5.9995613e-02
   1.3824921e-03
   8.5316075e-02
  -1.0044773e-01
   1.9014237e-01
   3.8625827e-02
   1.2165684e-01
   4.1851406e-01
  -2.5693197e-01
   1.6539186e-01
   3.1325039e-02
   3.3407732e-01
   4.1888690e-01
   3.3980125e-01
   1.4655729e-01
   2.5660415e-01
  -1.2434804e-01
  -1.5233460e-01
   1.1416968e-01
   5.8380334e-02
  -9.4069233e-02
   1.3196123e-01
   3.2445870e-01
   3.4255589e-02
  -2.9108577e-01
  -2.5603128e-02
  -1.1037263e-01
  -1.2011623e-01
   1.4691581e-02
  -3.7924827e-01
  -8.4087395e-02
  -3.2794820e-01
  -3.4090201e-02
  -8.2306232e-02
   2.5298891e-01
   3.3890082e-02
   2.7946966e-01
  -3.4766053e-02
  -1.4399953e-01
   2.0654505e-01
  -1.9036872e-01
   1.8503751e-01
  -1.5373794e-01
   4.6484621e-02
   1.7209074e-01
  -6.1934108e-02
  -1.7812213e-01
  -3.0120656e-01
   1.3922836e-02
   4.0204816e-01
   1.3178104e-01
   1.1783862e-01
   5.1447843e-01
  -1.0474780e-01
   3.9037497e-01
  -3.3127385e-02
  -1.8950047e-01
  -7.1737830e-02
  -1.7159310e-01
  -7.5236385e-02
   3.7551371e-03
  -4.7678821e-02
  -3.0918678e-01
  -1.1749908e-01
   1.5096721e-01
   2.7283194e-02
  -4.8540567e-01
   1.8453810e-01
  -2.8344664e-01
   2.0221242e-02
   1.5624917e-01
  -1.2003404e-01
  -6.5921104e-02
  -1.5848113e-01
   5.8063065e-02
  -2.7852719e-01
   2.8963880e-01
   1.2777272e-01
  -5.9503395e-02
  -3.1680148e-01
   1.7429719e-01
   2.4710747e-02
   1.9495544e-01
  -4.4070170e-02
   2.4994538e-01
  -5.0620909e-01
  -1.8146491e-01
   1.7404300e-01
  -1.5814776e-01
   2.3266160e-01
   1.5026615e-01
  -2.7693331e-01
   1.6413939e-02
   1.5727821e-01
   1.8019024e-01
  -8.3243362e-02
   2.6223368e-01
   5.1897334e-01
   2.7409302e-01
   1.2596200e-01
   5.9976122e-02
   4.9205656e-02
  -2.7340222e-01
   1.6520681e-01
  -2.2756466e-02
   1.4471016e-01
  -7.5694670e-02
   1.6982312e-01
   2.8435381e-01
   7.2304987e-02
   3.8059615e-01
   5.1957102e-01
  -9.7809883e-02
   1.1837316e-01
   1.2530074e-02
  -9.9582711e-02
   2.3100880e-02
  -4.8333080e-01
   9.3900449e-02
  -8.5615155e-02
   3.1451632e-01
   1.1790378e-01
   5.9733027e-02
   2.7560273e-01
  -1.1893030e-01
   2.2884426e-01
   3.1548278e-01
  -8.6504978e-02
   5.8306459e-02
  -2.1323378e-02
  -1.0074960e-01
   2.2862179e-01
   2.4426523e-01
  -7.9172220e-02
  -4.8967354e-02
   1.1763454e-01
  -2.3672056e-01
   2.1746574e-01
   5.7355992e-02
  -6.5745230e-02
  -1.4956231e-01
   1.2245015e-02
  -2.7924224e-01
  -3.0436192e-01
  -9.8365797e-04
  -1.5453557e-01
  -2.1809647e-01
  -4.8448622e-03
   2.0215942e-01
  -1.9256863e-01
  -1.4875763e-01
  -1.8977025e-01
  -9.5689902e-02
   1.1445754e-01
   2.3022215e-01
   7.9655619e-01
   4.9715907e-01
   7.9905149e-01
   9.2161734e-01
   1.2362775e+00
   1.0243404e+00
   9.8630208e-01
   9.0322066e-01
   9.3644838e-01
   3.9001684e-01
   4.4755666e-01
  -3.0644636e-01
  -1.5859280e-01
  -2.6604736e-01
  -3.7751152e-01
  -4.9187652e-01
  -4.2567832e-01
  -1.8472667e-01
  -5.6023148e-01
  -2.8516611e-01
  -1.6277660e-01
  -3.1797867e-01
  -1.4046969e-01
  -2.5329970e-02
   1.1234428e-02
  -3.0543635e-01
  -2.7210782e-01
  -1.2697881e-01
   3.0045544e-01
  -2.0120077e-01
  -6.3037420e-02
  -5.5732069e-01
  -1.5231739e-01
  -2.1581548e-01
  -5.4764332e-02
   1.3660522e-01
  -1.4496831e-01
  -4.0013002e-02
  -3.0921284e-01
   2.7214486e-01
  -7.5587463e-02
  -1.9367496e-02
  -9.7840562e-02
  -3.0467696e-01
  -1.6909046e-01
   5.4353163e-02
  -1.0034635e-01
   1.0848560e-01
   2.8994045e-01
   7.9727307e-02
  -1.1276513e-01
   1.0489479e-01
   1.5929426e-01
   5.5748891e-01
  -1.1359272e-02
   5.8616851e-01
   6.4030591e-01
   8.2020081e-02
   3.4787322e-01
   6.2234231e-02
   2.8912818e-01
   1.5612379e-01
  -9.2540116e-02
   1.7699203e-01
   2.8271250e-01
   5.9003708e-01
   3.0701900e-01
   3.3122121e-01
   1.4986736e-01
   2.0914216e-01
   3.0669596e-01
   5.0048516e-02
   4.9577710e-01
   5.1711641e-01
   6.6903786e-01
   2.4297208e-01
   3.4734667e-01
   3.2241138e-01
   3.0526337e-01
   3.0925433e-01
   1.5958622e-01
   2.6401067e-01
   4.0521952e-01
   3.3632941e-01
   3.2750291e-01
  -1.0614477e-01
   3.1541320e-01
  -3.3298026e-02
   1.3786342e-01
   4.9158040e-01
  -7.9432000e-02
   3.0180282e-01
   2.7392316e-01
  -1.1940956e-01
   3.9358238e-01
   2.9532026e-01
  -3.3121930e-02
  -2.5688731e-01
   2.1419370e-02
  -1.8797205e-01
   6.7284923e-02
  -1.6353987e-01
   1.4458242e-02
  -3.5436675e-01
   1.1074093e-02
  -4.9739428e-01
  -4.9256199e-02
  -2.8271958e-01
   7.6406545e-02
   9.3799482e-02
  -1.0132232e-01
  -3.0366620e-01
  -7.6869653e-02
  -1.6896917e-01
   3.9373537e-01
  -2.4027819e-01
   4.8720309e-02
   1.9361937e-01
   1.4209850e-01
   2.9245214e-01
  -1.0509539e-01
   1.9990948e-02
   1.7209724e-01
  -4.6530985e-01
  -2.4416943e-01
   1.8175843e-02
  -1.1405170e-01
  -8.5377207e-02
  -2.0365189e-01
   5.2869214e-02
   1.2188191e-01
  -2.7906475e-02
  -3.1596043e-02
  -1.4610134e-01
  -8.0880791e-02
   3.5969996e-01
   6.3548423e-02
  -2.4854352e-01
  -4.2331456e-01
  -6.7150083e-02
  -1.4020702e-01
  -7.8722788e-02
  -4.4549013e-01
   6.5524468e-02
  -2.8590355e-02
  -1.1926124e-01
  -1.8345817e-01
   8.8239680e-03
   9.3110631e-02
  -8.3217878e-02
  -5.7210016e-02
  -1.3541206e-01
  -3.1383634e-01
   5.4134048e-02
   1.5500818e-01
  -7.6771473e-02
  -1.6476298e-01
   1.6791673e-01
  -5.8040160e-02
  -2.2692405e-01
   9.6574051e-02
   1.5715593e-02
  -2.5731932e-01
  -1.9738872e-01
  -2.6044945e-02
   6.2940882e-02
  -1.2437211e-02
  -2.8214737e-02
  -2.3129443e-01
  -1.3719850e-01
  -5.0462828e-02
  -4.9100604e-02
   2.9583559e-01
   7.9362957e-02
  -5.0158175e-02
  -3.3261420e-01
   9.6691062e-03
  -1.6518802e-01
   9.4313935e-02
  -1.3485299e-01
  -3.6541138e-02
  -9.9054188e-02
   2.1209212e-01
  -3.0132513e-01
   3.7088861e-02
  -3.8499353e-02
   6.0299500e-02
   1.7361662e-01
  -1.5256512e-01
  -2.8437813e-01
  -1.7642250e-01
  -1.5578609e-01
   1.0062114e-02
   3.6240158e-01
  -1.0660356e-01
   1.8220596e-01
   2.0513463e-01
   8.6921608e-02
   4.4309813e-01
   4.3471376e-02
   2.5887172e-02
  -1.2173679e-01
  -1.5560204e-01
  -3.5312659e-02
  -2.6401823e-02
   2.1577671e-01
  -1.7620305e-01
   2.4827990e-01
   6.5969541e-02
   1.9238187e-01
   1.7627331e-01
   1.2702239e-01
   3.0125416e-01
   4.2586136e-01
   1.7465187e-01
   1.6346809e-02
  -1.0942592e-02
   3.9961946e-01
  -2.2030421e-02
   3.8816971e-01
  -2.1635421e-01
  -2.0172515e-01
  -4.8836575e-01
  -2.1671332e-01
  -3.1878004e-01
  -2.6691809e-01
   3.7231984e-01
  -3.8642171e-02
  -1.3335678e-01
   8.6190787e-02
  -3.8945506e-01
   4.1889203e-01
  -2.1713310e-01
  -9.1049633e-02
   1.9188841e-01
  -1.5200096e-02
  -2.7868368e-02
   9.3251715e-02
   7.2108365e-02
  -1.4678156e-02
  -2.5489355e-01
  -5.3502155e-01
  -2.9361533e-01
   2.3797684e-01
  -5.0597519e-01
  -3.6261647e-01
  -8.7539033e-02
  -5.4730054e-01
   4.5663525e-02
  -3.3505874e-02
   4.4137701e-01
   5.8746768e-01
   8.2395302e-01
   9.3018118e-01
   9.7729233e-01
   1.1079062e+00
   5.3271745e-01
   9.6000408e-01
   9.5074250e-01
   4.2261065e-01
   8.2653616e-01
   3.6396078e-01
  -3.0958183e-01
  -3.0728914e-01
  -3.2554582e-01
  -1.2985910e-01
  -5.5596363e-01
  -2.9765910e-01
  -3.9165859e-01
  -2.7486921e-01
  -6.2304190e-01
  -5.1102705e-01
  -2.2574154e-01
  -6.6901552e-01
  -2.4162141e-01
  -1.7625846e-01
  -4.6762164e-01
  -1.1887253e-01
   1.4606897e-01
  -2.2482500e-02
   2.8119774e-01
  -2.1727444e-01
  -2.0360903e-01
  -1.7327838e-01
  -8.6802246e-02
   4.0969104e-01
  -2.1154513e-02
   6.3069102e-02
  -1.8043810e-01
  -7.7971887e-02
  -3.2794259e-01
   3.1747252e-01
   1.1113584e-01
   2.2681112e-01
  -1.5774160e-01
  -5.5838041e-02
   1.5394690e-03
   1.5769542e-02
   1.4807034e-02
  -1.2647682e-01
   4.4359376e-01
   3.8518445e-02
  -3.3317381e-01
   9.2974309e-02
  -2.6439071e-01
   8.2735677e-02
   3.5843270e-01
   3.5625055e-01
   7.0684892e-02
   1.4806056e-01
   5.1035519e-02
   4.7747411e-01
  -6.9489023e-02
   5.0755158e-01
   5.6332993e-01
   4.9324513e-01
   4.7379747e-02
   1.4406199e-01
   1.2724594e-01
   4.9713014e-01
   2.1015668e-01
   2.4645580e-01
   8.9157415e-01
   4.8649115e-01
   4.2154751e-01
   6.5989711e-01
   4.3398520e-01
   2.8247330e-01
   3.3019890e-01
  -5.4090459e-02
   4.3272353e-01
   1.4626014e-01
   1.5537699e-01
   3.2818196e-01
   4.6095454e-01
   1.1218168e-01
  -1.6069365e-02
   1.8492999e-01
   5.7415645e-01
  -1.0219885e-01
   1.7497331e-01
   2.4724473e-01
   8.4075416e-02
   3.2854717e-01
   5.2593728e-02
   1.6601783e-01
   1.1482370e-01
   1.8091604e-01
  -1.8301789e-01
  -3.6564461e-02
   1.1171942e-01
   2.5135289e-01
   3.4924693e-01
   2.0017465e-01
   7.6285517e-02
  -2.5889144e-01
  -4.4778235e-01
   7.7856624e-04
   2.2100351e-01
  -1.9896044e-03
   2.8770812e-01
  -6.4904491e-02
  -1.8484408e-01
   3.4324983e-01
  -2.4056169e-01
  -5.3036697e-02
  -5.8697074e-02
  -1.7890520e-01
   1.2336141e-01
  -2.0106670e-01
  -1.3551865e-01
   2.0144790e-02
  -2.4414129e-01
  -4.2937100e-01
  -8.2758082e-02
  -2.6960697e-01
   5.2378476e-02
   3.8383128e-01
  -3.1146700e-01
  -1.5664217e-01
   1.3212763e-01
   2.3262879e-01
  -1.9978106e-01
   1.8058004e-02
  -2.9732838e-01
  -4.7855593e-01
  -3.1653173e-01
   8.1508331e-02
  -3.1246692e-01
  -5.1855739e-03
  -2.0034630e-01
  -2.2546745e-01
   1.5497094e-01
  -1.1773984e-01
  -2.0671523e-01
  -3.2304668e-01
   1.5974020e-01
   1.0297234e-01
  -1.3367891e-01
  -2.8328638e-01
  -4.2334373e-02
  -2.1132674e-01
   1.5892170e-02
   8.9080872e-02
  -3.0218671e-01
   2.9560601e-01
   3.0583990e-01
  -8.4844362e-02
  -5.3240568e-02
  -1.1051644e-01
   2.7286936e-01
  -2.3734160e-01
  -1.3320817e-01
  -8.5231431e-02
  -2.9189123e-01
  -3.7729936e-02
   1.1275656e-01
   4.6010504e-02
  -6.5766087e-02
  -1.8703263e-01
  -3.3353833e-01
   3.6682447e-01
   2.0785832e-01
  -1.8559140e-01
  -6.3456974e-02
  -1.7874416e-01
  -1.3952806e-01
  -1.9854845e-02
  -5.5315762e-02
  -1.2893726e-02
   1.2049932e-01
  -3.9675345e-01
   2.1658866e-01
  -6.2576901e-02
   3.2776174e-03
  -1.1215164e-01
   4.5991107e-04
  -3.6499057e-01
   2.6803958e-02
   1.6578733e-01
  -1.0812164e-01
   6.8347543e-02
  -8.9329563e-02
   7.2997213e-02
   1.0472924e-01
   1.6142535e-01
  -3.7439317e-02
   3.2211049e-01
   1.3115037e-02
   1.7450979e-01
  -1.4205971e-01
   2.4940612e-01
   3.2825379e-01
  -6.2200118e-02
   1.1987998e-01
   3.4524984e-01
   1.3168495e-01
   4.2734033e-01
   1.8431943e-01
   3.2547392e-01
   1.4360544e-01
   1.0332203e-01
   2.0310640e-01
   2.2609788e-01
   1.4249241e-01
   6.5453365e-01
  -9.6028709e-02
   1.6875436e-01
   3.6875050e-01
  -2.7376509e-02
   2.0635740e-01
   6.0298566e-01
   2.5771185e-01
   3.2987259e-01
   3.7766702e-01
  -1.1165123e-01
  -3.1732476e-01
   1.4641157e-01
  -1.5651189e-01
   2.3983930e-01
  -6.9848914e-02
  -2.0073529e-01
   6.6172837e-02
   2.4541627e-02
   2.0912157e-02
  -2.4578836e-02
  -1.6629208e-01
   2.4770299e-01
   1.1491447e-01
  -1.5693558e-01
   5.3415980e-02
   4.9734972e-02
   7.4609179e-02
  -5.3265145e-02
  -1.0966554e-01
  -1.8727419e-01
  -2.7087022e-01
  -1.5323930e-01
   4.1803241e-02
  -1.5193766e-01
  -1.5044199e-01
   1.6503142e-01
  -6.0441764e-01
  -2.4691648e-01
   2.1031618e-02
  -3.0228569e-01
   1.7646005e-01
   1.4854132e-01
   2.5176989e-01
   6.2335631e-01
   5.5154432e-01
   7.4388724e-01
   6.4482605e-01
   1.3667935e+00
   1.2559415e+00
   1.2973395e+00
   1.3209525e+00
   1.0077379e+00
   1.1017686e+00
   4.8315290e-01
   3.1151343e-01
  -1.7642671e-02
   2.0882561e-01
  -2.2566265e-02
  -4.5724882e-01
  -1.4456536e-02
  -2.5524474e-01
  -4.3599377e-01
  -4.5172870e-02
  -1.3166504e-01
  -4.0999173e-01
   4.8731800e-01
  -5.2461282e-02
  -4.8303505e-02
  -2.7133087e-02
   3.8969761e-01
   1.6213341e-01
   2.1794435e-01
  -2.5019426e-01
   2.1676557e-01
  -7.8916988e-03
   1.3781028e-02
  -3.0266979e-01
   1.2926435e-01
  -9.0457786e-02
  -7.9052091e-02
   7.9055638e-02
  -9.1626998e-02
  -4.0762596e-01
  -2.0667819e-02
  -2.4074513e-01
   2.9665687e-01
  -1.4659676e-01
   1.6090693e-01
   1.1827584e-02
   3.3025944e-01
  -5.6028453e-02
   1.6745720e-01
   1.9280515e-01
   1.5313401e-02
  -1.7831640e-01
   1.8292340e-01
   1.2290778e-01
   7.2500425e-01
   9.1266672e-02
  -1.0680276e-01
   2.4258206e-01
   2.6998351e-01
   3.6021128e-01
   2.7343416e-01
   3.0567491e-01
   4.0851138e-01
   1.1276251e-01
   4.2219582e-01
   7.4716370e-01
   3.8728313e-01
   3.1328301e-01
   4.7683750e-01
   4.9777909e-01
   4.5429734e-01
   9.5553171e-01
   3.3160108e-01
   3.7451128e-01
   4.8859832e-01
   3.4407087e-01
   6.9238821e-01
   5.2937582e-01
   7.3616362e-01
   6.8178180e-01
   5.7705421e-01
   5.6385149e-01
   5.7644959e-01
   3.8955200e-01
   9.8075545e-01
   3.3163418e-02
   2.5731513e-01
   4.2061300e-01
  -1.0064466e-01
   4.0594707e-02
   2.9083930e-01
  -3.6663075e-02
   3.8725406e-01
   4.0758639e-01
  -5.8405125e-02
   2.8938444e-01
   1.0145353e-01
   4.1127081e-01
   2.9964510e-01
   2.4995530e-01
  -6.1286831e-02
   1.8268498e-01
  -1.5795114e-01
   1.3089837e-01
   1.1782872e-01
  -2.5398229e-01
   3.4152588e-02
   1.6051945e-01
   1.9841208e-01
   9.4212278e-02
  -1.5609984e-01
   2.3477686e-01
  -5.5434856e-02
  -2.2105434e-01
  -5.3233847e-02
  -1.0524862e-01
   7.6267690e-02
   1.7998922e-01
  -2.0715973e-01
  -1.6737683e-01
  -9.1437385e-02
   1.1095205e-01
   1.0978201e-01
   4.3487075e-02
   1.5874600e-01
   1.8546818e-01
  -1.8221684e-01
  -9.6736677e-02
   3.9146452e-02
  -6.2201838e-02
  -4.8051443e-03
  -1.5411936e-01
   1.6421599e-01
  -2.4623374e-02
   3.3800743e-01
   2.2475513e-01
  -3.6674081e-01
   3.0838991e-03
   3.3217682e-01
   6.7504785e-02
   1.9558774e-01
  -7.4669009e-02
  -8.3351005e-02
  -1.4795586e-01
  -8.7170016e-02
   2.7849935e-01
   9.3889569e-02
   1.6354013e-01
   4.7247623e-01
  -1.4212272e-01
   3.3996916e-01
   1.8160752e-02
  -2.4605761e-01
  -2.5229805e-01
  -1.8934504e-01
  -2.2723300e-01
  -1.8609974e-01
   3.6679213e-01
  -4.2530980e-01
  -1.1406804e-01
   5.2441917e-01
   5.0223298e-01
  -8.3098753e-02
   2.2813353e-01
  -2.2878918e-01
  -3.8542762e-03
   3.2774158e-01
   1.5451606e-01
  -4.2932846e-02
   1.0932304e-01
  -2.4379381e-01
   3.1374195e-02
   2.2115827e-01
  -1.2513581e-01
   3.1424944e-01
  -1.6692469e-02
  -1.2822779e-01
   3.6710491e-01
   1.8697166e-01
  -1.7413850e-01
  -1.7504822e-02
  -3.7061838e-01
  -3.7789544e-01
  -3.9423447e-02
  -2.7235562e-01
  -2.0521299e-01
  -1.7694828e-01
  -3.9162056e-02
  -3.5547751e-01
   3.8713439e-01
  -8.9406974e-02
   2.0682907e-01
   2.1417308e-01
   4.6876818e-01
   2.1729890e-01
   1.6047998e-01
  -4.5552276e-02
   7.6511988e-03
   1.7349751e-01
   3.8218320e-01
   2.3239000e-01
  -1.2401822e-01
   2.0895517e-01
   2.4425283e-01
   6.6878190e-02
   1.4700588e-01
  -7.9482455e-02
   2.1066815e-01
   5.1689852e-01
   1.1738663e-01
   3.5692749e-01
   5.7146018e-01
   2.2498713e-01
   2.3982813e-01
   4.5598965e-01
   2.7877443e-01
   6.0263624e-01
   2.0988991e-01
   4.0565088e-01
   7.3718557e-02
   1.2809279e-01
   2.6064014e-01
  -1.1552437e-02
   4.3910992e-02
   5.1780599e-01
   1.0967763e-01
  -3.2799333e-02
   1.8400988e-01
   1.3605141e-01
   3.1935133e-01
   2.5132794e-01
   2.1273179e-01
   1.3472598e-01
   1.1125739e-01
  -2.3031454e-03
  -1.2546943e-01
   1.1045418e-01
   2.4832954e-01
  -9.0178378e-02
  -2.1373142e-01
  -3.1940575e-02
  -3.5417675e-02
   3.1998657e-03
  -6.1155493e-02
  -1.7985653e-01
  -2.3447414e-01
   1.1466642e-01
  -8.4870966e-02
  -2.9042209e-01
  -1.8344422e-01
   1.0612823e-01
  -8.1369661e-02
  -2.4893683e-01
   2.3535650e-01
   5.4533665e-02
   3.2875119e-01
   4.6949616e-01
   7.5884062e-01
   8.5778489e-01
   7.7621084e-01
   9.6890561e-01
